
Filename:
	C:\Program Files\Thermo Electron\WinXRD\Datafiles\F_HERMAN\GEO\GG_21_SFT.raw

File Created:
	October 14, 2020 - 05:13 AM

Specimen Id:
	GG_21_SFT

Specimen Name:
	

Specimen Description:
	

Comment:
Scan Type: 2Theta Scan
Start Angle: 3 deg.
Stop Angle: 65 deg.
Num Points: 3101
Step Size: 0.02 deg.
Scan Rate: 1.000000
Scan Mode: Continuous
Wavelength: 1.540562
\Kalpha1: 1.540562	\Kalpha2: 1.544390	\Kbeta: 1.392218

Optics:
		Detector:
			 Type: Fixed Slits
		Tube: 
			 Type: Fixed Slits


Datas:
 Pos [deg]       Rate [CPS]      ESD [-]

Range 1 ---> Iteration 1
   3.000        322.50	    19.672
   3.020        344.17	    20.322
   3.040        386.67	    21.541
   3.060        366.67	    20.976
   3.080        375.00	    21.213
   3.100        356.67	    20.688
   3.120        343.33	    20.298
   3.140        340.00	    20.199
   3.160        355.83	    20.664
   3.180        321.67	    19.647
   3.200        366.67	    20.976
   3.220        335.83	    20.075
   3.240        363.33	    20.881
   3.260        320.83	    19.621
   3.280        330.00	    19.900
   3.300        331.67	    19.950
   3.320        332.50	    19.975
   3.340        300.00	    18.974
   3.360        324.17	    19.723
   3.380        330.83	    19.925
   3.400        308.33	    19.235
   3.420        335.83	    20.075
   3.440        299.17	    18.947
   3.460        292.50	    18.735
   3.480        334.17	    20.025
   3.500        323.33	    19.698
   3.520        312.50	    19.365
   3.540        318.33	    19.545
   3.560        320.83	    19.621
   3.580        300.83	    19.000
   3.600        302.50	    19.053
   3.620        289.17	    18.628
   3.640        277.50	    18.248
   3.660        283.33	    18.439
   3.680        267.50	    17.916
   3.700        309.17	    19.261
   3.720        303.33	    19.079
   3.740        295.83	    18.841
   3.760        281.67	    18.385
   3.780        280.00	    18.330
   3.800        282.50	    18.412
   3.820        263.33	    17.776
   3.840        247.50	    17.234
   3.860        288.33	    18.601
   3.880        273.33	    18.111
   3.900        255.00	    17.493
   3.920        280.00	    18.330
   3.940        254.17	    17.464
   3.960        278.33	    18.276
   3.980        271.67	    18.055
   4.000        266.67	    17.889
   4.020        278.33	    18.276
   4.040        245.83	    17.176
   4.060        270.83	    18.028
   4.080        276.67	    18.221
   4.100        256.67	    17.550
   4.120        234.17	    16.763
   4.140        261.67	    17.720
   4.160        283.33	    18.439
   4.180        235.00	    16.793
   4.200        256.67	    17.550
   4.220        255.00	    17.493
   4.240        218.33	    16.186
   4.260        227.50	    16.523
   4.280        255.00	    17.493
   4.300        238.33	    16.912
   4.320        216.67	    16.125
   4.340        210.83	    15.906
   4.360        233.33	    16.733
   4.380        233.33	    16.733
   4.400        252.50	    17.407
   4.420        229.17	    16.583
   4.440        237.50	    16.882
   4.460        246.67	    17.205
   4.480        231.67	    16.673
   4.500        206.67	    15.748
   4.520        224.17	    16.401
   4.540        230.83	    16.643
   4.560        221.67	    16.310
   4.580        209.17	    15.843
   4.600        228.33	    16.553
   4.620        221.67	    16.310
   4.640        215.83	    16.093
   4.660        213.33	    16.000
   4.680        215.00	    16.062
   4.700        226.67	    16.492
   4.720        191.67	    15.166
   4.740        196.67	    15.362
   4.760        230.83	    16.643
   4.780        212.50	    15.969
   4.800        222.50	    16.340
   4.820        188.33	    15.033
   4.840        200.00	    15.492
   4.860        195.00	    15.297
   4.880        193.33	    15.232
   4.900        199.17	    15.460
   4.920        229.17	    16.583
   4.940        192.50	    15.199
   4.960        192.50	    15.199
   4.980        193.33	    15.232
   5.000        215.83	    16.093
   5.020        195.83	    15.330
   5.040        182.50	    14.799
   5.060        189.17	    15.067
   5.080        204.17	    15.652
   5.100        190.83	    15.133
   5.120        188.33	    15.033
   5.140        195.00	    15.297
   5.160        183.33	    14.832
   5.180        200.83	    15.524
   5.200        193.33	    15.232
   5.220        208.33	    15.811
   5.240        174.17	    14.457
   5.260        198.33	    15.427
   5.280        189.17	    15.067
   5.300        173.33	    14.422
   5.320        187.50	    15.000
   5.340        155.83	    13.675
   5.360        188.33	    15.033
   5.380        181.67	    14.765
   5.400        151.67	    13.491
   5.420        171.67	    14.353
   5.440        197.50	    15.395
   5.460        190.83	    15.133
   5.480        157.50	    13.748
   5.500        172.50	    14.387
   5.520        190.83	    15.133
   5.540        185.83	    14.933
   5.560        155.83	    13.675
   5.580        174.17	    14.457
   5.600        173.33	    14.422
   5.620        174.17	    14.457
   5.640        190.00	    15.100
   5.660        160.00	    13.856
   5.680        152.50	    13.528
   5.700        174.17	    14.457
   5.720        183.33	    14.832
   5.740        190.00	    15.100
   5.760        189.17	    15.067
   5.780        161.67	    13.928
   5.800        197.50	    15.395
   5.820        167.50	    14.177
   5.840        187.50	    15.000
   5.860        185.00	    14.900
   5.880        185.00	    14.900
   5.900        175.00	    14.491
   5.920        179.17	    14.663
   5.940        190.83	    15.133
   5.960        218.33	    16.186
   5.980        190.00	    15.100
   6.000        183.33	    14.832
   6.020        219.17	    16.217
   6.040        211.67	    15.937
   6.060        224.17	    16.401
   6.080        226.67	    16.492
   6.100        257.50	    17.578
   6.120        236.67	    16.852
   6.140        233.33	    16.733
   6.160        216.67	    16.125
   6.180        216.67	    16.125
   6.200        237.50	    16.882
   6.220        231.67	    16.673
   6.240        288.33	    18.601
   6.260        244.17	    17.117
   6.280        251.67	    17.378
   6.300        245.83	    17.176
   6.320        250.00	    17.321
   6.340        253.33	    17.436
   6.360        249.17	    17.292
   6.380        226.67	    16.492
   6.400        226.67	    16.492
   6.420        190.00	    15.100
   6.440        200.00	    15.492
   6.460        172.50	    14.387
   6.480        170.83	    14.318
   6.500        153.33	    13.565
   6.520        156.67	    13.711
   6.540        172.50	    14.387
   6.560        161.67	    13.928
   6.580        150.83	    13.454
   6.600        156.67	    13.711
   6.620        144.17	    13.153
   6.640        135.00	    12.728
   6.660        141.67	    13.038
   6.680        156.67	    13.711
   6.700        143.33	    13.115
   6.720        156.67	    13.711
   6.740        141.67	    13.038
   6.760        155.00	    13.638
   6.780        157.50	    13.748
   6.800        132.50	    12.610
   6.820        136.67	    12.806
   6.840        160.00	    13.856
   6.860        139.17	    12.923
   6.880        141.67	    13.038
   6.900        137.50	    12.845
   6.920        149.17	    13.379
   6.940        165.00	    14.071
   6.960        135.83	    12.767
   6.980        139.17	    12.923
   7.000        140.00	    12.961
   7.020        140.83	    13.000
   7.040        152.50	    13.528
   7.060        163.33	    14.000
   7.080        125.83	    12.288
   7.100        127.50	    12.369
   7.120        136.67	    12.806
   7.140        125.00	    12.247
   7.160        130.00	    12.490
   7.180        144.17	    13.153
   7.200        145.83	    13.229
   7.220        140.83	    13.000
   7.240        141.67	    13.038
   7.260        126.67	    12.329
   7.280        143.33	    13.115
   7.300        137.50	    12.845
   7.320        111.67	    11.576
   7.340        143.33	    13.115
   7.360        127.50	    12.369
   7.380        150.00	    13.416
   7.400        143.33	    13.115
   7.420        127.50	    12.369
   7.440        127.50	    12.369
   7.460        132.50	    12.610
   7.480        130.00	    12.490
   7.500        132.50	    12.610
   7.520        116.67	    11.832
   7.540        145.83	    13.229
   7.560        137.50	    12.845
   7.580        136.67	    12.806
   7.600        144.17	    13.153
   7.620        112.50	    11.619
   7.640        130.00	    12.490
   7.660        125.83	    12.288
   7.680        126.67	    12.329
   7.700        110.00	    11.489
   7.720        130.83	    12.530
   7.740        109.17	    11.446
   7.760        125.83	    12.288
   7.780        115.83	    11.790
   7.800        137.50	    12.845
   7.820        125.00	    12.247
   7.840        120.00	    12.000
   7.860        123.33	    12.166
   7.880        125.83	    12.288
   7.900        134.17	    12.689
   7.920        117.50	    11.874
   7.940        122.50	    12.124
   7.960        130.83	    12.530
   7.980        117.50	    11.874
   8.000        115.00	    11.747
   8.020        119.17	    11.958
   8.040        110.00	    11.489
   8.060        119.17	    11.958
   8.080        140.83	    13.000
   8.100        123.33	    12.166
   8.120        133.33	    12.649
   8.140        129.17	    12.450
   8.160        122.50	    12.124
   8.180        123.33	    12.166
   8.200        128.33	    12.410
   8.220        116.67	    11.832
   8.240        125.00	    12.247
   8.260        133.33	    12.649
   8.280        110.00	    11.489
   8.300        132.50	    12.610
   8.320        130.00	    12.490
   8.340        120.00	    12.000
   8.360        145.00	    13.191
   8.380        126.67	    12.329
   8.400        139.17	    12.923
   8.420        137.50	    12.845
   8.440        135.83	    12.767
   8.460        127.50	    12.369
   8.480        148.33	    13.342
   8.500        153.33	    13.565
   8.520        156.67	    13.711
   8.540        140.83	    13.000
   8.560        170.00	    14.283
   8.580        156.67	    13.711
   8.600        157.50	    13.748
   8.620        170.00	    14.283
   8.640        204.17	    15.652
   8.660        147.50	    13.304
   8.680        196.67	    15.362
   8.700        205.00	    15.684
   8.720        209.17	    15.843
   8.740        196.67	    15.362
   8.760        206.67	    15.748
   8.780        235.00	    16.793
   8.800        276.67	    18.221
   8.820        287.50	    18.574
   8.840        276.67	    18.221
   8.860        311.67	    19.339
   8.880        357.50	    20.712
   8.900        373.33	    21.166
   8.920        448.33	    23.195
   8.940        483.33	    24.083
   8.960        487.50	    24.187
   8.980        457.50	    23.431
   9.000        479.17	    23.979
   9.020        410.00	    22.181
   9.040        320.00	    19.596
   9.060        273.33	    18.111
   9.080        232.50	    16.703
   9.100        217.50	    16.155
   9.120        150.00	    13.416
   9.140        163.33	    14.000
   9.160        134.17	    12.689
   9.180        144.17	    13.153
   9.200        126.67	    12.329
   9.220        141.67	    13.038
   9.240        130.83	    12.530
   9.260        169.17	    14.248
   9.280        128.33	    12.410
   9.300        130.00	    12.490
   9.320         97.50	    10.817
   9.340        111.67	    11.576
   9.360        116.67	    11.832
   9.380        110.83	    11.533
   9.400        115.00	    11.747
   9.420        110.00	    11.489
   9.440        121.67	    12.083
   9.460        128.33	    12.410
   9.480        140.00	    12.961
   9.500        128.33	    12.410
   9.520        158.33	    13.784
   9.540        157.50	    13.748
   9.560        152.50	    13.528
   9.580        173.33	    14.422
   9.600        123.33	    12.166
   9.620        137.50	    12.845
   9.640        118.33	    11.916
   9.660         90.83	    10.440
   9.680        111.67	    11.576
   9.700         97.50	    10.817
   9.720         82.50	     9.950
   9.740        105.00	    11.225
   9.760         93.33	    10.583
   9.780         98.33	    10.863
   9.800        110.00	    11.489
   9.820         75.83	     9.539
   9.840         92.50	    10.536
   9.860         89.17	    10.344
   9.880        100.83	    11.000
   9.900         80.83	     9.849
   9.920        110.00	    11.489
   9.940         99.17	    10.909
   9.960         94.17	    10.630
   9.980         88.33	    10.296
  10.000         95.83	    10.724
  10.020         79.17	     9.747
  10.040         90.00	    10.392
  10.060         81.67	     9.899
  10.080         85.00	    10.100
  10.100         95.83	    10.724
  10.120         88.33	    10.296
  10.140         88.33	    10.296
  10.160         90.83	    10.440
  10.180         90.83	    10.440
  10.200         81.67	     9.899
  10.220         78.33	     9.695
  10.240         80.00	     9.798
  10.260         78.33	     9.695
  10.280         90.00	    10.392
  10.300         88.33	    10.296
  10.320         77.50	     9.644
  10.340         72.50	     9.327
  10.360         96.67	    10.770
  10.380         77.50	     9.644
  10.400         99.17	    10.909
  10.420         95.83	    10.724
  10.440         90.00	    10.392
  10.460         93.33	    10.583
  10.480         95.83	    10.724
  10.500        110.00	    11.489
  10.520        125.83	    12.288
  10.540        131.67	    12.570
  10.560        138.33	    12.884
  10.580        171.67	    14.353
  10.600        162.50	    13.964
  10.620        162.50	    13.964
  10.640        160.83	    13.892
  10.660        142.50	    13.077
  10.680        130.00	    12.490
  10.700        109.17	    11.446
  10.720         96.67	    10.770
  10.740        114.17	    11.705
  10.760        100.83	    11.000
  10.780         86.67	    10.198
  10.800         90.83	    10.440
  10.820         79.17	     9.747
  10.840         68.33	     9.055
  10.860         72.50	     9.327
  10.880         87.50	    10.247
  10.900         77.50	     9.644
  10.920         86.67	    10.198
  10.940         73.33	     9.381
  10.960         76.67	     9.592
  10.980         72.50	     9.327
  11.000         79.17	     9.747
  11.020         92.50	    10.536
  11.040         90.00	    10.392
  11.060         73.33	     9.381
  11.080         67.50	     9.000
  11.100         89.17	    10.344
  11.120         79.17	     9.747
  11.140         73.33	     9.381
  11.160         82.50	     9.950
  11.180         71.67	     9.274
  11.200         85.00	    10.100
  11.220         80.00	     9.798
  11.240         75.00	     9.487
  11.260         80.00	     9.798
  11.280         73.33	     9.381
  11.300         77.50	     9.644
  11.320         72.50	     9.327
  11.340         90.00	    10.392
  11.360         80.00	     9.798
  11.380         86.67	    10.198
  11.400         83.33	    10.000
  11.420         73.33	     9.381
  11.440         71.67	     9.274
  11.460         76.67	     9.592
  11.480         71.67	     9.274
  11.500         76.67	     9.592
  11.520         67.50	     9.000
  11.540         85.83	    10.149
  11.560         83.33	    10.000
  11.580         90.83	    10.440
  11.600         87.50	    10.247
  11.620         78.33	     9.695
  11.640         86.67	    10.198
  11.660         85.83	    10.149
  11.680         82.50	     9.950
  11.700         81.67	     9.899
  11.720         84.17	    10.050
  11.740         85.83	    10.149
  11.760         92.50	    10.536
  11.780        102.50	    11.091
  11.800         87.50	    10.247
  11.820        109.17	    11.446
  11.840         97.50	    10.817
  11.860         89.17	    10.344
  11.880         75.00	     9.487
  11.900         89.17	    10.344
  11.920        101.67	    11.045
  11.940         90.83	    10.440
  11.960        118.33	    11.916
  11.980         96.67	    10.770
  12.000        102.50	    11.091
  12.020        125.83	    12.288
  12.040        105.83	    11.269
  12.060        111.67	    11.576
  12.080        120.00	    12.000
  12.100        137.50	    12.845
  12.120        175.00	    14.491
  12.140        188.33	    15.033
  12.160        210.83	    15.906
  12.180        292.50	    18.735
  12.200        342.50	    20.273
  12.220        460.00	    23.495
  12.240        641.67	    27.749
  12.260        801.67	    31.016
  12.280        880.83	    32.512
  12.300        871.67	    32.342
  12.320        760.83	    30.216
  12.340        659.17	    28.125
  12.360        522.50	    25.040
  12.380        421.67	    22.494
  12.400        376.67	    21.260
  12.420        376.67	    21.260
  12.440        392.50	    21.703
  12.460        417.50	    22.383
  12.480        398.33	    21.863
  12.500        422.50	    22.517
  12.520        455.00	    23.367
  12.540        501.67	    24.536
  12.560        645.83	    27.839
  12.580        610.83	    27.074
  12.600        607.50	    27.000
  12.620        480.83	    24.021
  12.640        400.00	    21.909
  12.660        316.67	    19.494
  12.680        270.00	    18.000
  12.700        200.83	    15.524
  12.720        146.67	    13.266
  12.740        147.50	    13.304
  12.760        129.17	    12.450
  12.780        110.00	    11.489
  12.800        110.83	    11.533
  12.820        101.67	    11.045
  12.840         89.17	    10.344
  12.860         96.67	    10.770
  12.880         84.17	    10.050
  12.900         90.83	    10.440
  12.920         74.17	     9.434
  12.940         78.33	     9.695
  12.960         76.67	     9.592
  12.980         75.00	     9.487
  13.000         76.67	     9.592
  13.020         75.83	     9.539
  13.040         70.00	     9.165
  13.060         89.17	    10.344
  13.080         79.17	     9.747
  13.100         81.67	     9.899
  13.120         74.17	     9.434
  13.140         87.50	    10.247
  13.160         77.50	     9.644
  13.180         70.00	     9.165
  13.200         85.00	    10.100
  13.220         74.17	     9.434
  13.240         54.17	     8.062
  13.260         60.83	     8.544
  13.280         65.83	     8.888
  13.300         66.67	     8.944
  13.320         65.00	     8.832
  13.340         63.33	     8.718
  13.360         74.17	     9.434
  13.380         70.83	     9.220
  13.400         70.83	     9.220
  13.420         68.33	     9.055
  13.440         75.83	     9.539
  13.460         55.00	     8.124
  13.480         73.33	     9.381
  13.500         67.50	     9.000
  13.520         60.83	     8.544
  13.540         67.50	     9.000
  13.560         73.33	     9.381
  13.580         73.33	     9.381
  13.600         70.00	     9.165
  13.620         72.50	     9.327
  13.640         55.83	     8.185
  13.660         77.50	     9.644
  13.680         63.33	     8.718
  13.700         63.33	     8.718
  13.720         80.83	     9.849
  13.740         79.17	     9.747
  13.760         59.17	     8.426
  13.780         69.17	     9.110
  13.800         67.50	     9.000
  13.820         69.17	     9.110
  13.840         75.00	     9.487
  13.860         84.17	    10.050
  13.880         72.50	     9.327
  13.900         78.33	     9.695
  13.920         81.67	     9.899
  13.940        115.00	    11.747
  13.960         75.83	     9.539
  13.980         81.67	     9.899
  14.000         83.33	    10.000
  14.020         79.17	     9.747
  14.040         66.67	     8.944
  14.060         60.83	     8.544
  14.080         58.33	     8.367
  14.100         59.17	     8.426
  14.120         55.83	     8.185
  14.140         61.67	     8.602
  14.160         60.83	     8.544
  14.180         50.00	     7.746
  14.200         51.67	     7.874
  14.220         55.83	     8.185
  14.240         54.17	     8.062
  14.260         65.83	     8.888
  14.280         53.33	     8.000
  14.300         60.00	     8.485
  14.320         61.67	     8.602
  14.340         43.33	     7.211
  14.360         66.67	     8.944
  14.380         45.00	     7.348
  14.400         52.50	     7.937
  14.420         55.83	     8.185
  14.440         46.67	     7.483
  14.460         45.83	     7.416
  14.480         50.83	     7.810
  14.500         37.50	     6.708
  14.520         50.83	     7.810
  14.540         41.67	     7.071
  14.560         55.83	     8.185
  14.580         52.50	     7.937
  14.600         47.50	     7.550
  14.620         40.83	     7.000
  14.640         65.00	     8.832
  14.660         46.67	     7.483
  14.680         48.33	     7.616
  14.700         48.33	     7.616
  14.720         56.67	     8.246
  14.740         39.17	     6.856
  14.760         41.67	     7.071
  14.780         48.33	     7.616
  14.800         54.17	     8.062
  14.820         50.00	     7.746
  14.840         29.17	     5.916
  14.860         52.50	     7.937
  14.880         46.67	     7.483
  14.900         40.00	     6.928
  14.920         51.67	     7.874
  14.940         49.17	     7.681
  14.960         50.00	     7.746
  14.980         53.33	     8.000
  15.000         49.17	     7.681
  15.020         50.83	     7.810
  15.040         55.00	     8.124
  15.060         80.83	     9.849
  15.080         61.67	     8.602
  15.100         70.83	     9.220
  15.120         73.33	     9.381
  15.140         65.83	     8.888
  15.160         45.00	     7.348
  15.180         52.50	     7.937
  15.200         56.67	     8.246
  15.220         48.33	     7.616
  15.240         49.17	     7.681
  15.260         38.33	     6.782
  15.280         53.33	     8.000
  15.300         42.50	     7.141
  15.320         51.67	     7.874
  15.340         46.67	     7.483
  15.360         50.00	     7.746
  15.380         56.67	     8.246
  15.400         36.67	     6.633
  15.420         45.83	     7.416
  15.440         45.00	     7.348
  15.460         40.83	     7.000
  15.480         53.33	     8.000
  15.500         45.00	     7.348
  15.520         43.33	     7.211
  15.540         48.33	     7.616
  15.560         41.67	     7.071
  15.580         48.33	     7.616
  15.600         49.17	     7.681
  15.620         45.83	     7.416
  15.640         57.50	     8.307
  15.660         47.50	     7.550
  15.680         48.33	     7.616
  15.700         60.83	     8.544
  15.720         45.83	     7.416
  15.740         42.50	     7.141
  15.760         52.50	     7.937
  15.780         49.17	     7.681
  15.800         44.17	     7.280
  15.820         45.00	     7.348
  15.840         47.50	     7.550
  15.860         50.00	     7.746
  15.880         50.83	     7.810
  15.900         56.67	     8.246
  15.920         48.33	     7.616
  15.940         63.33	     8.718
  15.960         47.50	     7.550
  15.980         40.83	     7.000
  16.000         59.17	     8.426
  16.020         44.17	     7.280
  16.040         45.83	     7.416
  16.060         52.50	     7.937
  16.080         47.50	     7.550
  16.100         40.00	     6.928
  16.120         45.00	     7.348
  16.140         40.00	     6.928
  16.160         52.50	     7.937
  16.180         43.33	     7.211
  16.200         47.50	     7.550
  16.220         50.83	     7.810
  16.240         45.83	     7.416
  16.260         48.33	     7.616
  16.280         32.50	     6.245
  16.300         48.33	     7.616
  16.320         41.67	     7.071
  16.340         39.17	     6.856
  16.360         59.17	     8.426
  16.380         42.50	     7.141
  16.400         40.00	     6.928
  16.420         47.50	     7.550
  16.440         40.83	     7.000
  16.460         58.33	     8.367
  16.480         44.17	     7.280
  16.500         42.50	     7.141
  16.520         38.33	     6.782
  16.540         45.00	     7.348
  16.560         46.67	     7.483
  16.580         40.00	     6.928
  16.600         51.67	     7.874
  16.620         52.50	     7.937
  16.640         46.67	     7.483
  16.660         51.67	     7.874
  16.680         40.83	     7.000
  16.700         43.33	     7.211
  16.720         45.00	     7.348
  16.740         26.67	     5.657
  16.760         41.67	     7.071
  16.780         45.00	     7.348
  16.800         36.67	     6.633
  16.820         41.67	     7.071
  16.840         40.00	     6.928
  16.860         44.17	     7.280
  16.880         54.17	     8.062
  16.900         40.00	     6.928
  16.920         40.83	     7.000
  16.940         47.50	     7.550
  16.960         51.67	     7.874
  16.980         55.83	     8.185
  17.000         40.83	     7.000
  17.020         41.67	     7.071
  17.040         58.33	     8.367
  17.060         47.50	     7.550
  17.080         52.50	     7.937
  17.100         50.00	     7.746
  17.120         57.50	     8.307
  17.140         40.83	     7.000
  17.160         47.50	     7.550
  17.180         49.17	     7.681
  17.200         33.33	     6.325
  17.220         44.17	     7.280
  17.240         50.00	     7.746
  17.260         44.17	     7.280
  17.280         52.50	     7.937
  17.300         39.17	     6.856
  17.320         43.33	     7.211
  17.340         49.17	     7.681
  17.360         56.67	     8.246
  17.380         49.17	     7.681
  17.400         47.50	     7.550
  17.420         50.00	     7.746
  17.440         57.50	     8.307
  17.460         54.17	     8.062
  17.480         53.33	     8.000
  17.500         46.67	     7.483
  17.520         53.33	     8.000
  17.540         46.67	     7.483
  17.560         59.17	     8.426
  17.580         52.50	     7.937
  17.600         66.67	     8.944
  17.620         48.33	     7.616
  17.640         55.83	     8.185
  17.660         67.50	     9.000
  17.680         64.17	     8.775
  17.700         69.17	     9.110
  17.720         74.17	     9.434
  17.740         84.17	    10.050
  17.760        105.83	    11.269
  17.780        117.50	    11.874
  17.800        132.50	    12.610
  17.820        169.17	    14.248
  17.840        186.67	    14.967
  17.860        215.00	    16.062
  17.880        246.67	    17.205
  17.900        266.67	    17.889
  17.920        250.00	    17.321
  17.940        225.00	    16.432
  17.960        193.33	    15.232
  17.980        150.00	    13.416
  18.000        139.17	    12.923
  18.020         97.50	    10.817
  18.040         77.50	     9.644
  18.060         87.50	    10.247
  18.080         89.17	    10.344
  18.100         56.67	     8.246
  18.120         77.50	     9.644
  18.140         65.00	     8.832
  18.160         62.50	     8.660
  18.180         60.83	     8.544
  18.200         59.17	     8.426
  18.220         74.17	     9.434
  18.240         75.83	     9.539
  18.260         54.17	     8.062
  18.280         57.50	     8.307
  18.300         60.00	     8.485
  18.320         54.17	     8.062
  18.340         60.00	     8.485
  18.360         60.00	     8.485
  18.380         60.00	     8.485
  18.400         70.83	     9.220
  18.420         64.17	     8.775
  18.440         63.33	     8.718
  18.460         73.33	     9.381
  18.480         71.67	     9.274
  18.500         76.67	     9.592
  18.520         74.17	     9.434
  18.540         70.83	     9.220
  18.560         90.00	    10.392
  18.580         87.50	    10.247
  18.600        110.00	    11.489
  18.620        132.50	    12.610
  18.640        147.50	    13.304
  18.660        125.83	    12.288
  18.680        127.50	    12.369
  18.700        126.67	    12.329
  18.720        125.00	    12.247
  18.740        125.83	    12.288
  18.760        118.33	    11.916
  18.780        125.83	    12.288
  18.800        176.67	    14.560
  18.820        177.50	    14.595
  18.840        253.33	    17.436
  18.860        279.17	    18.303
  18.880        264.17	    17.804
  18.900        239.17	    16.941
  18.920        237.50	    16.882
  18.940        198.33	    15.427
  18.960        156.67	    13.711
  18.980        110.83	    11.533
  19.000         98.33	    10.863
  19.020         92.50	    10.536
  19.040         94.17	    10.630
  19.060         85.00	    10.100
  19.080         50.83	     7.810
  19.100         82.50	     9.950
  19.120         63.33	     8.718
  19.140         72.50	     9.327
  19.160         75.00	     9.487
  19.180         60.00	     8.485
  19.200         57.50	     8.307
  19.220         50.83	     7.810
  19.240         61.67	     8.602
  19.260         61.67	     8.602
  19.280         69.17	     9.110
  19.300         69.17	     9.110
  19.320         64.17	     8.775
  19.340         77.50	     9.644
  19.360         73.33	     9.381
  19.380         60.00	     8.485
  19.400         75.00	     9.487
  19.420         60.00	     8.485
  19.440         62.50	     8.660
  19.460         72.50	     9.327
  19.480         62.50	     8.660
  19.500         46.67	     7.483
  19.520         50.83	     7.810
  19.540         60.00	     8.485
  19.560         65.00	     8.832
  19.580         55.83	     8.185
  19.600         49.17	     7.681
  19.620         50.00	     7.746
  19.640         55.83	     8.185
  19.660         70.83	     9.220
  19.680         71.67	     9.274
  19.700         70.00	     9.165
  19.720         65.83	     8.888
  19.740         87.50	    10.247
  19.760         87.50	    10.247
  19.780         86.67	    10.198
  19.800         77.50	     9.644
  19.820         93.33	    10.583
  19.840         75.00	     9.487
  19.860         91.67	    10.488
  19.880         87.50	    10.247
  19.900         95.83	    10.724
  19.920         95.83	    10.724
  19.940         96.67	    10.770
  19.960         84.17	    10.050
  19.980         90.00	    10.392
  20.000         85.00	    10.100
  20.020         73.33	     9.381
  20.040         88.33	    10.296
  20.060         85.00	    10.100
  20.080         72.50	     9.327
  20.100         58.33	     8.367
  20.120         72.50	     9.327
  20.140         65.00	     8.832
  20.160         44.17	     7.280
  20.180         53.33	     8.000
  20.200         65.83	     8.888
  20.220         65.83	     8.888
  20.240         58.33	     8.367
  20.260         69.17	     9.110
  20.280         49.17	     7.681
  20.300         56.67	     8.246
  20.320         63.33	     8.718
  20.340         55.00	     8.124
  20.360         45.00	     7.348
  20.380         64.17	     8.775
  20.400         50.00	     7.746
  20.420         50.83	     7.810
  20.440         48.33	     7.616
  20.460         53.33	     8.000
  20.480         46.67	     7.483
  20.500         46.67	     7.483
  20.520         52.50	     7.937
  20.540         57.50	     8.307
  20.560         40.83	     7.000
  20.580         62.50	     8.660
  20.600         55.83	     8.185
  20.620         54.17	     8.062
  20.640         48.33	     7.616
  20.660         64.17	     8.775
  20.680         55.83	     8.185
  20.700         60.00	     8.485
  20.720         66.67	     8.944
  20.740         50.83	     7.810
  20.760         67.50	     9.000
  20.780         66.67	     8.944
  20.800         62.50	     8.660
  20.820         62.50	     8.660
  20.840         79.17	     9.747
  20.860         99.17	    10.909
  20.880        125.83	    12.288
  20.900        162.50	    13.964
  20.920        214.17	    16.031
  20.940        233.33	    16.733
  20.960        205.00	    15.684
  20.980        220.83	    16.279
  21.000        168.33	    14.213
  21.020        137.50	    12.845
  21.040        103.33	    11.136
  21.060        115.83	    11.790
  21.080        104.17	    11.180
  21.100         86.67	    10.198
  21.120         87.50	    10.247
  21.140         85.83	    10.149
  21.160         90.00	    10.392
  21.180         73.33	     9.381
  21.200         79.17	     9.747
  21.220         79.17	     9.747
  21.240         70.83	     9.220
  21.260         66.67	     8.944
  21.280         67.50	     9.000
  21.300         53.33	     8.000
  21.320         47.50	     7.550
  21.340         60.00	     8.485
  21.360         49.17	     7.681
  21.380         45.00	     7.348
  21.400         51.67	     7.874
  21.420         55.00	     8.124
  21.440         60.83	     8.544
  21.460         42.50	     7.141
  21.480         52.50	     7.937
  21.500         50.83	     7.810
  21.520         53.33	     8.000
  21.540         41.67	     7.071
  21.560         59.17	     8.426
  21.580         58.33	     8.367
  21.600         50.83	     7.810
  21.620         55.00	     8.124
  21.640         60.83	     8.544
  21.660         50.00	     7.746
  21.680         66.67	     8.944
  21.700         60.00	     8.485
  21.720         52.50	     7.937
  21.740         56.67	     8.246
  21.760         50.83	     7.810
  21.780         63.33	     8.718
  21.800         54.17	     8.062
  21.820         47.50	     7.550
  21.840         57.50	     8.307
  21.860         56.67	     8.246
  21.880         45.00	     7.348
  21.900         49.17	     7.681
  21.920         45.00	     7.348
  21.940         70.00	     9.165
  21.960         60.00	     8.485
  21.980         63.33	     8.718
  22.000         75.00	     9.487
  22.020         78.33	     9.695
  22.040         97.50	    10.817
  22.060        128.33	    12.410
  22.080        151.67	    13.491
  22.100        210.83	    15.906
  22.120        218.33	    16.186
  22.140        231.67	    16.673
  22.160        198.33	    15.427
  22.180        178.33	    14.629
  22.200        150.83	    13.454
  22.220        128.33	    12.410
  22.240        112.50	    11.619
  22.260         80.00	     9.798
  22.280         86.67	    10.198
  22.300         70.83	     9.220
  22.320         67.50	     9.000
  22.340         64.17	     8.775
  22.360         62.50	     8.660
  22.380         62.50	     8.660
  22.400         66.67	     8.944
  22.420         60.00	     8.485
  22.440         59.17	     8.426
  22.460         51.67	     7.874
  22.480         57.50	     8.307
  22.500         60.83	     8.544
  22.520         63.33	     8.718
  22.540         49.17	     7.681
  22.560         54.17	     8.062
  22.580         64.17	     8.775
  22.600         76.67	     9.592
  22.620         56.67	     8.246
  22.640         63.33	     8.718
  22.660         64.17	     8.775
  22.680         45.83	     7.416
  22.700         55.00	     8.124
  22.720         65.83	     8.888
  22.740         57.50	     8.307
  22.760         58.33	     8.367
  22.780         53.33	     8.000
  22.800         60.00	     8.485
  22.820         59.17	     8.426
  22.840         60.00	     8.485
  22.860         71.67	     9.274
  22.880         75.00	     9.487
  22.900         73.33	     9.381
  22.920         90.00	    10.392
  22.940         92.50	    10.536
  22.960        109.17	    11.446
  22.980         95.00	    10.677
  23.000        115.83	    11.790
  23.020        109.17	    11.446
  23.040        102.50	    11.091
  23.060        114.17	    11.705
  23.080         85.83	    10.149
  23.100         95.00	    10.677
  23.120         97.50	    10.817
  23.140         95.83	    10.724
  23.160        101.67	    11.045
  23.180         81.67	     9.899
  23.200         83.33	    10.000
  23.220         68.33	     9.055
  23.240         55.00	     8.124
  23.260         60.00	     8.485
  23.280         53.33	     8.000
  23.300         59.17	     8.426
  23.320         64.17	     8.775
  23.340         56.67	     8.246
  23.360         62.50	     8.660
  23.380         55.83	     8.185
  23.400         53.33	     8.000
  23.420         60.83	     8.544
  23.440         55.00	     8.124
  23.460         60.83	     8.544
  23.480         58.33	     8.367
  23.500         61.67	     8.602
  23.520         74.17	     9.434
  23.540         96.67	    10.770
  23.560        115.00	    11.747
  23.580        128.33	    12.410
  23.600        167.50	    14.177
  23.620        198.33	    15.427
  23.640        187.50	    15.000
  23.660        186.67	    14.967
  23.680        165.00	    14.071
  23.700        147.50	    13.304
  23.720        128.33	    12.410
  23.740        135.83	    12.767
  23.760        113.33	    11.662
  23.780         95.00	    10.677
  23.800         92.50	    10.536
  23.820         97.50	    10.817
  23.840        112.50	    11.619
  23.860         90.00	    10.392
  23.880        114.17	    11.705
  23.900        106.67	    11.314
  23.920        115.83	    11.790
  23.940         90.83	    10.440
  23.960         87.50	    10.247
  23.980         91.67	    10.488
  24.000         92.50	    10.536
  24.020         86.67	    10.198
  24.040         85.00	    10.100
  24.060         79.17	     9.747
  24.080         77.50	     9.644
  24.100         80.83	     9.849
  24.120         98.33	    10.863
  24.140         99.17	    10.909
  24.160         98.33	    10.863
  24.180        114.17	    11.705
  24.200        131.67	    12.570
  24.220        119.17	    11.958
  24.240        134.17	    12.689
  24.260        142.50	    13.077
  24.280        148.33	    13.342
  24.300        159.17	    13.820
  24.320        152.50	    13.528
  24.340        167.50	    14.177
  24.360        165.83	    14.107
  24.380        191.67	    15.166
  24.400        151.67	    13.491
  24.420        165.83	    14.107
  24.440        166.67	    14.142
  24.460        157.50	    13.748
  24.480        157.50	    13.748
  24.500        135.00	    12.728
  24.520        164.17	    14.036
  24.540        162.50	    13.964
  24.560        211.67	    15.937
  24.580        250.83	    17.349
  24.600        359.17	    20.761
  24.620        443.33	    23.065
  24.640        539.17	    25.436
  24.660        640.00	    27.713
  24.680        725.83	    29.513
  24.700        734.17	    29.682
  24.720        691.67	    28.810
  24.740        654.17	    28.018
  24.760        585.00	    26.495
  24.780        499.17	    24.474
  24.800        435.00	    22.847
  24.820        346.67	    20.396
  24.840        360.83	    20.809
  24.860        312.50	    19.365
  24.880        290.83	    18.682
  24.900        260.00	    17.664
  24.920        255.00	    17.493
  24.940        234.17	    16.763
  24.960        216.67	    16.125
  24.980        236.67	    16.852
  25.000        199.17	    15.460
  25.020        201.67	    15.556
  25.040        191.67	    15.166
  25.060        172.50	    14.387
  25.080        216.67	    16.125
  25.100        216.67	    16.125
  25.120        240.00	    16.971
  25.140        288.33	    18.601
  25.160        320.83	    19.621
  25.180        425.83	    22.605
  25.200        501.67	    24.536
  25.220        513.33	    24.819
  25.240        483.33	    24.083
  25.260        495.00	    24.372
  25.280        457.50	    23.431
  25.300        404.17	    22.023
  25.320        325.83	    19.774
  25.340        252.50	    17.407
  25.360        262.50	    17.748
  25.380        200.83	    15.524
  25.400        188.33	    15.033
  25.420        177.50	    14.595
  25.440        197.50	    15.395
  25.460        194.17	    15.264
  25.480        176.67	    14.560
  25.500        176.67	    14.560
  25.520        170.83	    14.318
  25.540        179.17	    14.663
  25.560        171.67	    14.353
  25.580        186.67	    14.967
  25.600        185.83	    14.933
  25.620        187.50	    15.000
  25.640        180.00	    14.697
  25.660        167.50	    14.177
  25.680        169.17	    14.248
  25.700        159.17	    13.820
  25.720        158.33	    13.784
  25.740        163.33	    14.000
  25.760        145.00	    13.191
  25.780        120.83	    12.042
  25.800        115.00	    11.747
  25.820        114.17	    11.705
  25.840        110.83	    11.533
  25.860        100.83	    11.000
  25.880         97.50	    10.817
  25.900        112.50	    11.619
  25.920         86.67	    10.198
  25.940        100.83	    11.000
  25.960        100.83	    11.000
  25.980         91.67	    10.488
  26.000        110.83	    11.533
  26.020        108.33	    11.402
  26.040         85.00	    10.100
  26.060        101.67	    11.045
  26.080         80.00	     9.798
  26.100         92.50	    10.536
  26.120        105.83	    11.269
  26.140        101.67	    11.045
  26.160         92.50	    10.536
  26.180        103.33	    11.136
  26.200        102.50	    11.091
  26.220        105.83	    11.269
  26.240        119.17	    11.958
  26.260        113.33	    11.662
  26.280        115.00	    11.747
  26.300        127.50	    12.369
  26.320        120.83	    12.042
  26.340        151.67	    13.491
  26.360        130.00	    12.490
  26.380        176.67	    14.560
  26.400        170.83	    14.318
  26.420        185.83	    14.933
  26.440        194.17	    15.264
  26.460        236.67	    16.852
  26.480        234.17	    16.763
  26.500        250.00	    17.321
  26.520        259.17	    17.635
  26.540        275.83	    18.193
  26.560        277.50	    18.248
  26.580        295.83	    18.841
  26.600        294.17	    18.788
  26.620        315.00	    19.442
  26.640        392.50	    21.703
  26.660        565.83	    26.058
  26.680        782.50	    30.643
  26.700        970.83	    34.132
  26.720       1034.17	    35.228
  26.740        899.17	    32.848
  26.760        894.17	    32.757
  26.780        760.00	    30.199
  26.800        683.33	    28.636
  26.820        583.33	    26.458
  26.840        527.50	    25.159
  26.860        516.67	    24.900
  26.880        535.00	    25.338
  26.900        584.17	    26.476
  26.920        622.50	    27.331
  26.940        682.50	    28.618
  26.960        664.17	    28.231
  26.980        583.33	    26.458
  27.000        507.50	    24.678
  27.020        461.67	    23.537
  27.040        405.00	    22.045
  27.060        333.33	    20.000
  27.080        240.00	    16.971
  27.100        245.00	    17.146
  27.120        212.50	    15.969
  27.140        197.50	    15.395
  27.160        177.50	    14.595
  27.180        163.33	    14.000
  27.200        162.50	    13.964
  27.220        152.50	    13.528
  27.240        136.67	    12.806
  27.260        129.17	    12.450
  27.280        110.00	    11.489
  27.300        115.83	    11.790
  27.320        125.83	    12.288
  27.340        118.33	    11.916
  27.360        132.50	    12.610
  27.380        105.83	    11.269
  27.400        118.33	    11.916
  27.420        116.67	    11.832
  27.440        117.50	    11.874
  27.460        116.67	    11.832
  27.480        120.83	    12.042
  27.500        142.50	    13.077
  27.520        173.33	    14.422
  27.540        165.83	    14.107
  27.560        192.50	    15.199
  27.580        190.00	    15.100
  27.600        191.67	    15.166
  27.620        214.17	    16.031
  27.640        162.50	    13.964
  27.660        151.67	    13.491
  27.680        140.00	    12.961
  27.700        121.67	    12.083
  27.720        123.33	    12.166
  27.740        166.67	    14.142
  27.760        177.50	    14.595
  27.780        250.00	    17.321
  27.800        249.17	    17.292
  27.820        317.50	    19.519
  27.840        304.17	    19.105
  27.860        303.33	    19.079
  27.880        277.50	    18.248
  27.900        307.50	    19.209
  27.920        321.67	    19.647
  27.940        355.00	    20.640
  27.960        457.50	    23.431
  27.980        442.50	    23.043
  28.000        464.17	    23.601
  28.020        445.00	    23.108
  28.040        443.33	    23.065
  28.060        398.33	    21.863
  28.080        365.00	    20.928
  28.100        290.83	    18.682
  28.120        273.33	    18.111
  28.140        216.67	    16.125
  28.160        204.17	    15.652
  28.180        205.83	    15.716
  28.200        196.67	    15.362
  28.220        195.00	    15.297
  28.240        177.50	    14.595
  28.260        157.50	    13.748
  28.280        136.67	    12.806
  28.300        146.67	    13.266
  28.320        149.17	    13.379
  28.340        136.67	    12.806
  28.360        159.17	    13.820
  28.380        162.50	    13.964
  28.400        131.67	    12.570
  28.420        125.00	    12.247
  28.440        103.33	    11.136
  28.460        115.00	    11.747
  28.480         95.83	    10.724
  28.500        110.00	    11.489
  28.520        100.83	    11.000
  28.540        106.67	    11.314
  28.560        111.67	    11.576
  28.580        142.50	    13.077
  28.600        138.33	    12.884
  28.620        167.50	    14.177
  28.640        176.67	    14.560
  28.660        223.33	    16.371
  28.680        212.50	    15.969
  28.700        245.83	    17.176
  28.720        243.33	    17.088
  28.740        226.67	    16.492
  28.760        199.17	    15.460
  28.780        183.33	    14.832
  28.800        167.50	    14.177
  28.820        151.67	    13.491
  28.840        117.50	    11.874
  28.860        132.50	    12.610
  28.880        116.67	    11.832
  28.900        106.67	    11.314
  28.920         95.83	    10.724
  28.940         82.50	     9.950
  28.960         72.50	     9.327
  28.980         58.33	     8.367
  29.000         55.83	     8.185
  29.020         60.83	     8.544
  29.040         62.50	     8.660
  29.060         58.33	     8.367
  29.080         65.83	     8.888
  29.100         50.83	     7.810
  29.120         57.50	     8.307
  29.140         49.17	     7.681
  29.160         55.00	     8.124
  29.180         61.67	     8.602
  29.200         54.17	     8.062
  29.220         59.17	     8.426
  29.240         50.83	     7.810
  29.260         45.00	     7.348
  29.280         60.00	     8.485
  29.300         51.67	     7.874
  29.320         60.00	     8.485
  29.340         66.67	     8.944
  29.360         50.00	     7.746
  29.380         62.50	     8.660
  29.400         50.00	     7.746
  29.420         49.17	     7.681
  29.440         49.17	     7.681
  29.460         74.17	     9.434
  29.480         49.17	     7.681
  29.500         69.17	     9.110
  29.520         50.00	     7.746
  29.540         60.00	     8.485
  29.560         60.00	     8.485
  29.580         60.83	     8.544
  29.600         56.67	     8.246
  29.620         60.00	     8.485
  29.640         62.50	     8.660
  29.660         54.17	     8.062
  29.680         50.00	     7.746
  29.700         73.33	     9.381
  29.720         66.67	     8.944
  29.740         60.00	     8.485
  29.760         69.17	     9.110
  29.780         75.00	     9.487
  29.800         76.67	     9.592
  29.820         98.33	    10.863
  29.840        117.50	    11.874
  29.860        125.83	    12.288
  29.880        155.83	    13.675
  29.900        160.83	    13.892
  29.920        172.50	    14.387
  29.940        165.00	    14.071
  29.960        169.17	    14.248
  29.980        174.17	    14.457
  30.000        159.17	    13.820
  30.020        163.33	    14.000
  30.040        130.00	    12.490
  30.060        119.17	    11.958
  30.080        105.83	    11.269
  30.100        110.83	    11.533
  30.120        108.33	    11.402
  30.140        104.17	    11.180
  30.160        104.17	    11.180
  30.180        108.33	    11.402
  30.200        119.17	    11.958
  30.220        106.67	    11.314
  30.240         98.33	    10.863
  30.260        124.17	    12.207
  30.280        130.83	    12.530
  30.300        100.83	    11.000
  30.320        126.67	    12.329
  30.340        120.83	    12.042
  30.360        117.50	    11.874
  30.380        113.33	    11.662
  30.400        106.67	    11.314
  30.420        105.00	    11.225
  30.440        110.83	    11.533
  30.460        125.00	    12.247
  30.480        130.00	    12.490
  30.500        115.83	    11.790
  30.520        130.00	    12.490
  30.540        144.17	    13.153
  30.560        144.17	    13.153
  30.580        139.17	    12.923
  30.600        138.33	    12.884
  30.620        120.83	    12.042
  30.640        102.50	    11.091
  30.660         88.33	    10.296
  30.680         98.33	    10.863
  30.700         87.50	    10.247
  30.720         61.67	     8.602
  30.740         68.33	     9.055
  30.760         70.83	     9.220
  30.780         63.33	     8.718
  30.800         91.67	    10.488
  30.820         70.00	     9.165
  30.840         80.83	     9.849
  30.860         70.83	     9.220
  30.880         90.83	    10.440
  30.900         91.67	    10.488
  30.920         85.83	    10.149
  30.940        101.67	    11.045
  30.960         86.67	    10.198
  30.980         92.50	    10.536
  31.000         90.00	    10.392
  31.020         89.17	    10.344
  31.040         78.33	     9.695
  31.060         89.17	    10.344
  31.080         89.17	    10.344
  31.100         79.17	     9.747
  31.120         99.17	    10.909
  31.140         90.83	    10.440
  31.160         86.67	    10.198
  31.180        110.83	    11.533
  31.200        119.17	    11.958
  31.220        112.50	    11.619
  31.240        129.17	    12.450
  31.260        127.50	    12.369
  31.280        152.50	    13.528
  31.300        154.17	    13.601
  31.320        163.33	    14.000
  31.340        175.00	    14.491
  31.360        140.83	    13.000
  31.380        155.00	    13.638
  31.400        137.50	    12.845
  31.420        132.50	    12.610
  31.440        110.00	    11.489
  31.460         95.00	    10.677
  31.480         80.00	     9.798
  31.500         83.33	    10.000
  31.520        100.83	    11.000
  31.540         95.00	    10.677
  31.560         93.33	    10.583
  31.580        119.17	    11.958
  31.600        115.00	    11.747
  31.620        133.33	    12.649
  31.640        130.00	    12.490
  31.660        113.33	    11.662
  31.680        105.00	    11.225
  31.700        105.83	    11.269
  31.720        109.17	    11.446
  31.740        103.33	    11.136
  31.760        107.50	    11.358
  31.780         78.33	     9.695
  31.800         66.67	     8.944
  31.820         63.33	     8.718
  31.840         60.00	     8.485
  31.860         70.83	     9.220
  31.880         63.33	     8.718
  31.900         75.83	     9.539
  31.920         75.00	     9.487
  31.940         84.17	    10.050
  31.960        102.50	    11.091
  31.980         95.00	    10.677
  32.000         83.33	    10.000
  32.020         96.67	    10.770
  32.040         93.33	    10.583
  32.060        108.33	    11.402
  32.080        106.67	    11.314
  32.100         87.50	    10.247
  32.120         80.83	     9.849
  32.140        113.33	    11.662
  32.160        105.83	    11.269
  32.180        105.00	    11.225
  32.200        105.83	    11.269
  32.220         93.33	    10.583
  32.240         84.17	    10.050
  32.260         78.33	     9.695
  32.280         82.50	     9.950
  32.300         89.17	    10.344
  32.320        105.00	    11.225
  32.340         95.00	    10.677
  32.360         83.33	    10.000
  32.380         70.00	     9.165
  32.400         66.67	     8.944
  32.420         68.33	     9.055
  32.440         51.67	     7.874
  32.460         50.00	     7.746
  32.480         45.00	     7.348
  32.500         57.50	     8.307
  32.520         50.83	     7.810
  32.540         31.67	     6.164
  32.560         40.83	     7.000
  32.580         39.17	     6.856
  32.600         51.67	     7.874
  32.620         43.33	     7.211
  32.640         40.00	     6.928
  32.660         38.33	     6.782
  32.680         31.67	     6.164
  32.700         50.00	     7.746
  32.720         53.33	     8.000
  32.740         55.00	     8.124
  32.760         44.17	     7.280
  32.780         41.67	     7.071
  32.800         45.83	     7.416
  32.820         37.50	     6.708
  32.840         53.33	     8.000
  32.860         55.00	     8.124
  32.880         43.33	     7.211
  32.900         49.17	     7.681
  32.920         50.83	     7.810
  32.940         39.17	     6.856
  32.960         55.00	     8.124
  32.980         52.50	     7.937
  33.000         68.33	     9.055
  33.020         65.83	     8.888
  33.040         65.00	     8.832
  33.060         63.33	     8.718
  33.080         65.83	     8.888
  33.100         84.17	    10.050
  33.120         94.17	    10.630
  33.140         99.17	    10.909
  33.160        111.67	    11.576
  33.180         86.67	    10.198
  33.200         92.50	    10.536
  33.220         85.83	    10.149
  33.240         77.50	     9.644
  33.260         80.00	     9.798
  33.280         73.33	     9.381
  33.300         64.17	     8.775
  33.320         61.67	     8.602
  33.340         55.00	     8.124
  33.360         49.17	     7.681
  33.380         55.00	     8.124
  33.400         50.83	     7.810
  33.420         55.00	     8.124
  33.440         67.50	     9.000
  33.460         57.50	     8.307
  33.480         45.00	     7.348
  33.500         65.83	     8.888
  33.520         66.67	     8.944
  33.540         50.00	     7.746
  33.560         50.83	     7.810
  33.580         55.00	     8.124
  33.600         49.17	     7.681
  33.620         63.33	     8.718
  33.640         50.00	     7.746
  33.660         45.83	     7.416
  33.680         43.33	     7.211
  33.700         55.00	     8.124
  33.720         51.67	     7.874
  33.740         55.00	     8.124
  33.760         44.17	     7.280
  33.780         38.33	     6.782
  33.800         46.67	     7.483
  33.820         50.83	     7.810
  33.840         57.50	     8.307
  33.860         48.33	     7.616
  33.880         60.00	     8.485
  33.900         51.67	     7.874
  33.920         62.50	     8.660
  33.940         74.17	     9.434
  33.960         72.50	     9.327
  33.980         71.67	     9.274
  34.000         73.33	     9.381
  34.020         77.50	     9.644
  34.040         72.50	     9.327
  34.060         70.83	     9.220
  34.080         71.67	     9.274
  34.100         60.00	     8.485
  34.120         80.83	     9.849
  34.140         68.33	     9.055
  34.160         69.17	     9.110
  34.180         66.67	     8.944
  34.200         55.83	     8.185
  34.220         78.33	     9.695
  34.240         60.00	     8.485
  34.260         65.83	     8.888
  34.280         60.00	     8.485
  34.300         62.50	     8.660
  34.320         66.67	     8.944
  34.340         60.00	     8.485
  34.360         60.83	     8.544
  34.380         69.17	     9.110
  34.400         55.83	     8.185
  34.420         54.17	     8.062
  34.440         71.67	     9.274
  34.460         80.00	     9.798
  34.480         91.67	    10.488
  34.500        102.50	    11.091
  34.520         92.50	    10.536
  34.540         95.00	    10.677
  34.560        101.67	    11.045
  34.580        128.33	    12.410
  34.600        107.50	    11.358
  34.620        100.00	    10.954
  34.640        120.00	    12.000
  34.660        131.67	    12.570
  34.680        105.00	    11.225
  34.700        113.33	    11.662
  34.720        108.33	    11.402
  34.740        106.67	    11.314
  34.760        100.00	    10.954
  34.780        103.33	    11.136
  34.800        110.83	    11.533
  34.820         77.50	     9.644
  34.840         75.83	     9.539
  34.860         85.00	    10.100
  34.880         97.50	    10.817
  34.900         85.83	    10.149
  34.920         93.33	    10.583
  34.940        110.83	    11.533
  34.960        130.83	    12.530
  34.980        118.33	    11.916
  35.000        140.00	    12.961
  35.020        122.50	    12.124
  35.040        137.50	    12.845
  35.060        126.67	    12.329
  35.080        120.00	    12.000
  35.100        151.67	    13.491
  35.120        140.00	    12.961
  35.140        140.00	    12.961
  35.160        135.00	    12.728
  35.180        114.17	    11.705
  35.200        115.00	    11.747
  35.220        118.33	    11.916
  35.240        103.33	    11.136
  35.260         88.33	    10.296
  35.280        100.00	    10.954
  35.300        102.50	    11.091
  35.320         92.50	    10.536
  35.340         90.83	    10.440
  35.360        105.00	    11.225
  35.380         86.67	    10.198
  35.400        108.33	    11.402
  35.420         90.00	    10.392
  35.440         99.17	    10.909
  35.460        115.00	    11.747
  35.480         98.33	    10.863
  35.500        114.17	    11.705
  35.520         98.33	    10.863
  35.540        122.50	    12.124
  35.560        143.33	    13.115
  35.580        169.17	    14.248
  35.600        150.83	    13.454
  35.620        197.50	    15.395
  35.640        145.83	    13.229
  35.660        155.00	    13.638
  35.680        165.00	    14.071
  35.700        158.33	    13.784
  35.720        144.17	    13.153
  35.740        127.50	    12.369
  35.760        115.00	    11.747
  35.780         97.50	    10.817
  35.800         97.50	    10.817
  35.820        104.17	    11.180
  35.840         83.33	    10.000
  35.860         83.33	    10.000
  35.880         78.33	     9.695
  35.900         78.33	     9.695
  35.920         91.67	    10.488
  35.940         85.00	    10.100
  35.960         77.50	     9.644
  35.980         72.50	     9.327
  36.000         79.17	     9.747
  36.020         72.50	     9.327
  36.040         65.00	     8.832
  36.060         90.00	    10.392
  36.080         77.50	     9.644
  36.100         95.00	    10.677
  36.120         91.67	    10.488
  36.140         97.50	    10.817
  36.160         91.67	    10.488
  36.180        112.50	    11.619
  36.200         85.83	    10.149
  36.220         82.50	     9.950
  36.240         75.83	     9.539
  36.260         63.33	     8.718
  36.280         78.33	     9.695
  36.300         51.67	     7.874
  36.320         68.33	     9.055
  36.340         56.67	     8.246
  36.360         50.00	     7.746
  36.380         58.33	     8.367
  36.400         46.67	     7.483
  36.420         71.67	     9.274
  36.440         58.33	     8.367
  36.460         65.00	     8.832
  36.480         81.67	     9.899
  36.500         82.50	     9.950
  36.520         71.67	     9.274
  36.540         96.67	    10.770
  36.560        102.50	    11.091
  36.580        122.50	    12.124
  36.600        144.17	    13.153
  36.620        130.00	    12.490
  36.640        130.00	    12.490
  36.660        122.50	    12.124
  36.680        116.67	    11.832
  36.700        142.50	    13.077
  36.720        123.33	    12.166
  36.740        110.00	    11.489
  36.760        108.33	    11.402
  36.780        105.00	    11.225
  36.800        115.00	    11.747
  36.820         90.83	    10.440
  36.840         95.83	    10.724
  36.860         94.17	    10.630
  36.880         80.00	     9.798
  36.900         66.67	     8.944
  36.920         80.00	     9.798
  36.940         75.83	     9.539
  36.960         65.00	     8.832
  36.980         73.33	     9.381
  37.000         57.50	     8.307
  37.020         57.50	     8.307
  37.040         70.83	     9.220
  37.060         51.67	     7.874
  37.080         60.83	     8.544
  37.100         67.50	     9.000
  37.120         65.83	     8.888
  37.140         65.00	     8.832
  37.160         70.00	     9.165
  37.180         72.50	     9.327
  37.200         72.50	     9.327
  37.220         85.83	    10.149
  37.240         83.33	    10.000
  37.260         85.00	    10.100
  37.280         79.17	     9.747
  37.300         83.33	    10.000
  37.320         68.33	     9.055
  37.340         90.00	    10.392
  37.360         80.83	     9.849
  37.380         74.17	     9.434
  37.400         75.83	     9.539
  37.420        101.67	    11.045
  37.440         86.67	    10.198
  37.460         95.00	    10.677
  37.480         95.00	    10.677
  37.500         92.50	    10.536
  37.520         82.50	     9.950
  37.540        103.33	    11.136
  37.560         80.00	     9.798
  37.580         87.50	    10.247
  37.600         91.67	    10.488
  37.620        100.83	    11.000
  37.640         93.33	    10.583
  37.660         85.83	    10.149
  37.680         83.33	    10.000
  37.700         93.33	    10.583
  37.720         95.83	    10.724
  37.740         97.50	    10.817
  37.760        105.00	    11.225
  37.780         90.83	    10.440
  37.800        100.83	    11.000
  37.820         94.17	    10.630
  37.840         80.00	     9.798
  37.860         94.17	    10.630
  37.880         76.67	     9.592
  37.900         80.00	     9.798
  37.920         55.83	     8.185
  37.940         53.33	     8.000
  37.960         60.00	     8.485
  37.980         55.00	     8.124
  38.000         50.83	     7.810
  38.020         51.67	     7.874
  38.040         35.83	     6.557
  38.060         52.50	     7.937
  38.080         45.83	     7.416
  38.100         45.83	     7.416
  38.120         34.17	     6.403
  38.140         36.67	     6.633
  38.160         31.67	     6.164
  38.180         41.67	     7.071
  38.200         36.67	     6.633
  38.220         37.50	     6.708
  38.240         37.50	     6.708
  38.260         42.50	     7.141
  38.280         43.33	     7.211
  38.300         40.83	     7.000
  38.320         35.83	     6.557
  38.340         40.83	     7.000
  38.360         36.67	     6.633
  38.380         28.33	     5.831
  38.400         30.00	     6.000
  38.420         57.50	     8.307
  38.440         39.17	     6.856
  38.460         50.83	     7.810
  38.480         47.50	     7.550
  38.500         45.83	     7.416
  38.520         50.00	     7.746
  38.540         53.33	     8.000
  38.560         63.33	     8.718
  38.580         49.17	     7.681
  38.600         64.17	     8.775
  38.620         52.50	     7.937
  38.640         59.17	     8.426
  38.660         60.00	     8.485
  38.680         53.33	     8.000
  38.700         65.00	     8.832
  38.720         57.50	     8.307
  38.740         49.17	     7.681
  38.760         56.67	     8.246
  38.780         76.67	     9.592
  38.800         53.33	     8.000
  38.820         55.83	     8.185
  38.840         52.50	     7.937
  38.860         45.83	     7.416
  38.880         64.17	     8.775
  38.900         55.83	     8.185
  38.920         63.33	     8.718
  38.940         60.83	     8.544
  38.960         56.67	     8.246
  38.980         62.50	     8.660
  39.000         58.33	     8.367
  39.020         62.50	     8.660
  39.040         53.33	     8.000
  39.060         44.17	     7.280
  39.080         51.67	     7.874
  39.100         36.67	     6.633
  39.120         36.67	     6.633
  39.140         47.50	     7.550
  39.160         46.67	     7.483
  39.180         45.00	     7.348
  39.200         42.50	     7.141
  39.220         47.50	     7.550
  39.240         31.67	     6.164
  39.260         37.50	     6.708
  39.280         52.50	     7.937
  39.300         51.67	     7.874
  39.320         37.50	     6.708
  39.340         46.67	     7.483
  39.360         43.33	     7.211
  39.380         34.17	     6.403
  39.400         49.17	     7.681
  39.420         47.50	     7.550
  39.440         52.50	     7.937
  39.460         60.83	     8.544
  39.480         52.50	     7.937
  39.500         71.67	     9.274
  39.520         78.33	     9.695
  39.540        104.17	    11.180
  39.560         84.17	    10.050
  39.580         78.33	     9.695
  39.600        103.33	    11.136
  39.620         83.33	    10.000
  39.640         91.67	    10.488
  39.660         89.17	    10.344
  39.680         73.33	     9.381
  39.700         73.33	     9.381
  39.720         50.00	     7.746
  39.740         65.00	     8.832
  39.760         66.67	     8.944
  39.780         64.17	     8.775
  39.800         64.17	     8.775
  39.820         55.00	     8.124
  39.840         61.67	     8.602
  39.860         62.50	     8.660
  39.880         73.33	     9.381
  39.900         60.00	     8.485
  39.920         56.67	     8.246
  39.940         42.50	     7.141
  39.960         37.50	     6.708
  39.980         50.83	     7.810
  40.000         50.83	     7.810
  40.020         53.33	     8.000
  40.040         60.83	     8.544
  40.060         43.33	     7.211
  40.080         45.83	     7.416
  40.100         56.67	     8.246
  40.120         56.67	     8.246
  40.140         56.67	     8.246
  40.160         42.50	     7.141
  40.180         41.67	     7.071
  40.200         46.67	     7.483
  40.220         36.67	     6.633
  40.240         45.00	     7.348
  40.260         40.00	     6.928
  40.280         46.67	     7.483
  40.300         55.83	     8.185
  40.320         57.50	     8.307
  40.340         69.17	     9.110
  40.360         71.67	     9.274
  40.380         91.67	    10.488
  40.400         67.50	     9.000
  40.420         59.17	     8.426
  40.440         65.83	     8.888
  40.460         64.17	     8.775
  40.480         55.83	     8.185
  40.500         52.50	     7.937
  40.520         48.33	     7.616
  40.540         50.00	     7.746
  40.560         55.83	     8.185
  40.580         42.50	     7.141
  40.600         44.17	     7.280
  40.620         41.67	     7.071
  40.640         41.67	     7.071
  40.660         49.17	     7.681
  40.680         32.50	     6.245
  40.700         53.33	     8.000
  40.720         40.83	     7.000
  40.740         45.83	     7.416
  40.760         38.33	     6.782
  40.780         45.00	     7.348
  40.800         40.00	     6.928
  40.820         65.00	     8.832
  40.840         42.50	     7.141
  40.860         45.00	     7.348
  40.880         46.67	     7.483
  40.900         37.50	     6.708
  40.920         47.50	     7.550
  40.940         56.67	     8.246
  40.960         57.50	     8.307
  40.980         45.00	     7.348
  41.000         44.17	     7.280
  41.020         38.33	     6.782
  41.040         45.83	     7.416
  41.060         39.17	     6.856
  41.080         51.67	     7.874
  41.100         42.50	     7.141
  41.120         52.50	     7.937
  41.140         50.00	     7.746
  41.160         43.33	     7.211
  41.180         33.33	     6.325
  41.200         43.33	     7.211
  41.220         40.83	     7.000
  41.240         60.83	     8.544
  41.260         58.33	     8.367
  41.280         56.67	     8.246
  41.300         51.67	     7.874
  41.320         59.17	     8.426
  41.340         70.00	     9.165
  41.360         47.50	     7.550
  41.380         49.17	     7.681
  41.400         59.17	     8.426
  41.420         70.83	     9.220
  41.440         62.50	     8.660
  41.460         59.17	     8.426
  41.480         65.83	     8.888
  41.500         40.00	     6.928
  41.520         50.00	     7.746
  41.540         50.00	     7.746
  41.560         54.17	     8.062
  41.580         57.50	     8.307
  41.600         55.00	     8.124
  41.620         52.50	     7.937
  41.640         66.67	     8.944
  41.660         68.33	     9.055
  41.680         68.33	     9.055
  41.700         76.67	     9.592
  41.720         85.00	    10.100
  41.740         84.17	    10.050
  41.760         93.33	    10.583
  41.780         88.33	    10.296
  41.800        101.67	    11.045
  41.820         92.50	    10.536
  41.840         96.67	    10.770
  41.860         97.50	    10.817
  41.880         87.50	    10.247
  41.900         67.50	     9.000
  41.920         94.17	    10.630
  41.940         97.50	    10.817
  41.960         91.67	    10.488
  41.980         78.33	     9.695
  42.000         79.17	     9.747
  42.020         78.33	     9.695
  42.040         73.33	     9.381
  42.060         76.67	     9.592
  42.080         62.50	     8.660
  42.100         72.50	     9.327
  42.120         70.00	     9.165
  42.140         51.67	     7.874
  42.160         76.67	     9.592
  42.180         57.50	     8.307
  42.200         55.00	     8.124
  42.220         70.00	     9.165
  42.240         53.33	     8.000
  42.260         64.17	     8.775
  42.280         56.67	     8.246
  42.300         62.50	     8.660
  42.320         69.17	     9.110
  42.340         69.17	     9.110
  42.360         68.33	     9.055
  42.380         80.00	     9.798
  42.400         72.50	     9.327
  42.420         75.00	     9.487
  42.440         76.67	     9.592
  42.460         97.50	    10.817
  42.480        111.67	    11.576
  42.500        129.17	    12.450
  42.520        129.17	    12.450
  42.540        128.33	    12.410
  42.560         80.00	     9.798
  42.580         95.83	    10.724
  42.600         96.67	    10.770
  42.620         93.33	    10.583
  42.640         79.17	     9.747
  42.660         79.17	     9.747
  42.680         60.83	     8.544
  42.700         59.17	     8.426
  42.720         55.83	     8.185
  42.740         59.17	     8.426
  42.760         55.00	     8.124
  42.780         51.67	     7.874
  42.800         56.67	     8.246
  42.820         60.00	     8.485
  42.840         60.00	     8.485
  42.860         55.83	     8.185
  42.880         67.50	     9.000
  42.900         55.00	     8.124
  42.920         51.67	     7.874
  42.940         60.83	     8.544
  42.960         50.83	     7.810
  42.980         55.00	     8.124
  43.000         54.17	     8.062
  43.020         49.17	     7.681
  43.040         39.17	     6.856
  43.060         58.33	     8.367
  43.080         42.50	     7.141
  43.100         45.83	     7.416
  43.120         47.50	     7.550
  43.140         41.67	     7.071
  43.160         38.33	     6.782
  43.180         32.50	     6.245
  43.200         36.67	     6.633
  43.220         43.33	     7.211
  43.240         34.17	     6.403
  43.260         41.67	     7.071
  43.280         37.50	     6.708
  43.300         42.50	     7.141
  43.320         31.67	     6.164
  43.340         47.50	     7.550
  43.360         46.67	     7.483
  43.380         33.33	     6.325
  43.400         44.17	     7.280
  43.420         26.67	     5.657
  43.440         46.67	     7.483
  43.460         34.17	     6.403
  43.480         25.83	     5.568
  43.500         31.67	     6.164
  43.520         43.33	     7.211
  43.540         37.50	     6.708
  43.560         49.17	     7.681
  43.580         34.17	     6.403
  43.600         46.67	     7.483
  43.620         56.67	     8.246
  43.640         58.33	     8.367
  43.660         38.33	     6.782
  43.680         44.17	     7.280
  43.700         48.33	     7.616
  43.720         35.83	     6.557
  43.740         41.67	     7.071
  43.760         40.83	     7.000
  43.780         43.33	     7.211
  43.800         47.50	     7.550
  43.820         45.00	     7.348
  43.840         49.17	     7.681
  43.860         53.33	     8.000
  43.880         45.00	     7.348
  43.900         55.83	     8.185
  43.920         40.83	     7.000
  43.940         44.17	     7.280
  43.960         51.67	     7.874
  43.980         53.33	     8.000
  44.000         50.83	     7.810
  44.020         45.00	     7.348
  44.040         44.17	     7.280
  44.060         37.50	     6.708
  44.080         56.67	     8.246
  44.100         43.33	     7.211
  44.120         35.83	     6.557
  44.140         43.33	     7.211
  44.160         55.00	     8.124
  44.180         52.50	     7.937
  44.200         45.83	     7.416
  44.220         50.83	     7.810
  44.240         54.17	     8.062
  44.260         50.83	     7.810
  44.280         45.83	     7.416
  44.300         43.33	     7.211
  44.320         38.33	     6.782
  44.340         45.00	     7.348
  44.360         45.00	     7.348
  44.380         40.83	     7.000
  44.400         52.50	     7.937
  44.420         36.67	     6.633
  44.440         45.83	     7.416
  44.460         38.33	     6.782
  44.480         40.83	     7.000
  44.500         48.33	     7.616
  44.520         52.50	     7.937
  44.540         36.67	     6.633
  44.560         43.33	     7.211
  44.580         35.83	     6.557
  44.600         40.00	     6.928
  44.620         45.83	     7.416
  44.640         45.00	     7.348
  44.660         46.67	     7.483
  44.680         45.83	     7.416
  44.700         37.50	     6.708
  44.720         44.17	     7.280
  44.740         45.83	     7.416
  44.760         54.17	     8.062
  44.780         57.50	     8.307
  44.800         53.33	     8.000
  44.820         60.00	     8.485
  44.840         72.50	     9.327
  44.860         62.50	     8.660
  44.880         72.50	     9.327
  44.900         70.00	     9.165
  44.920         75.00	     9.487
  44.940         88.33	    10.296
  44.960         84.17	    10.050
  44.980         85.83	    10.149
  45.000         79.17	     9.747
  45.020         80.00	     9.798
  45.040         95.83	    10.724
  45.060         91.67	    10.488
  45.080         90.00	    10.392
  45.100         82.50	     9.950
  45.120         95.83	    10.724
  45.140         96.67	    10.770
  45.160         85.00	    10.100
  45.180         86.67	    10.198
  45.200         71.67	     9.274
  45.220         91.67	    10.488
  45.240         84.17	    10.050
  45.260         87.50	    10.247
  45.280         71.67	     9.274
  45.300        111.67	    11.576
  45.320         95.83	    10.724
  45.340         84.17	    10.050
  45.360        113.33	    11.662
  45.380        100.83	    11.000
  45.400        109.17	    11.446
  45.420        108.33	    11.402
  45.440        121.67	    12.083
  45.460        120.83	    12.042
  45.480        141.67	    13.038
  45.500        184.17	    14.866
  45.520        173.33	    14.422
  45.540        171.67	    14.353
  45.560        194.17	    15.264
  45.580        214.17	    16.031
  45.600        189.17	    15.067
  45.620        211.67	    15.937
  45.640        240.83	    17.000
  45.660        215.00	    16.062
  45.680        213.33	    16.000
  45.700        177.50	    14.595
  45.720        180.00	    14.697
  45.740        159.17	    13.820
  45.760        149.17	    13.379
  45.780        145.83	    13.229
  45.800        165.00	    14.071
  45.820        141.67	    13.038
  45.840        104.17	    11.180
  45.860        117.50	    11.874
  45.880         92.50	    10.536
  45.900         84.17	    10.050
  45.920         74.17	     9.434
  45.940         58.33	     8.367
  45.960         68.33	     9.055
  45.980         50.83	     7.810
  46.000         70.83	     9.220
  46.020         77.50	     9.644
  46.040         65.83	     8.888
  46.060         60.00	     8.485
  46.080         69.17	     9.110
  46.100         71.67	     9.274
  46.120         68.33	     9.055
  46.140         56.67	     8.246
  46.160         50.00	     7.746
  46.180         61.67	     8.602
  46.200         52.50	     7.937
  46.220         50.83	     7.810
  46.240         55.00	     8.124
  46.260         58.33	     8.367
  46.280         40.00	     6.928
  46.300         50.00	     7.746
  46.320         43.33	     7.211
  46.340         45.83	     7.416
  46.360         35.83	     6.557
  46.380         55.83	     8.185
  46.400         43.33	     7.211
  46.420         45.83	     7.416
  46.440         30.00	     6.000
  46.460         26.67	     5.657
  46.480         34.17	     6.403
  46.500         39.17	     6.856
  46.520         40.83	     7.000
  46.540         42.50	     7.141
  46.560         30.83	     6.083
  46.580         33.33	     6.325
  46.600         32.50	     6.245
  46.620         37.50	     6.708
  46.640         41.67	     7.071
  46.660         33.33	     6.325
  46.680         31.67	     6.164
  46.700         41.67	     7.071
  46.720         41.67	     7.071
  46.740         47.50	     7.550
  46.760         40.00	     6.928
  46.780         30.00	     6.000
  46.800         40.00	     6.928
  46.820         34.17	     6.403
  46.840         37.50	     6.708
  46.860         35.83	     6.557
  46.880         40.00	     6.928
  46.900         35.00	     6.481
  46.920         25.83	     5.568
  46.940         36.67	     6.633
  46.960         30.83	     6.083
  46.980         30.83	     6.083
  47.000         35.83	     6.557
  47.020         41.67	     7.071
  47.040         25.83	     5.568
  47.060         34.17	     6.403
  47.080         42.50	     7.141
  47.100         37.50	     6.708
  47.120         37.50	     6.708
  47.140         42.50	     7.141
  47.160         53.33	     8.000
  47.180         48.33	     7.616
  47.200         42.50	     7.141
  47.220         58.33	     8.367
  47.240         52.50	     7.937
  47.260         59.17	     8.426
  47.280         45.00	     7.348
  47.300         36.67	     6.633
  47.320         51.67	     7.874
  47.340         42.50	     7.141
  47.360         38.33	     6.782
  47.380         40.00	     6.928
  47.400         42.50	     7.141
  47.420         38.33	     6.782
  47.440         29.17	     5.916
  47.460         30.00	     6.000
  47.480         36.67	     6.633
  47.500         30.83	     6.083
  47.520         25.83	     5.568
  47.540         38.33	     6.782
  47.560         33.33	     6.325
  47.580         47.50	     7.550
  47.600         52.50	     7.937
  47.620         40.83	     7.000
  47.640         40.83	     7.000
  47.660         38.33	     6.782
  47.680         45.83	     7.416
  47.700         36.67	     6.633
  47.720         32.50	     6.245
  47.740         45.00	     7.348
  47.760         37.50	     6.708
  47.780         25.83	     5.568
  47.800         43.33	     7.211
  47.820         34.17	     6.403
  47.840         30.83	     6.083
  47.860         31.67	     6.164
  47.880         32.50	     6.245
  47.900         31.67	     6.164
  47.920         41.67	     7.071
  47.940         48.33	     7.616
  47.960         47.50	     7.550
  47.980         45.00	     7.348
  48.000         49.17	     7.681
  48.020         54.17	     8.062
  48.040         34.17	     6.403
  48.060         51.67	     7.874
  48.080         58.33	     8.367
  48.100         45.00	     7.348
  48.120         50.83	     7.810
  48.140         45.83	     7.416
  48.160         53.33	     8.000
  48.180         58.33	     8.367
  48.200         72.50	     9.327
  48.220         79.17	     9.747
  48.240         65.00	     8.832
  48.260         67.50	     9.000
  48.280         65.00	     8.832
  48.300         83.33	    10.000
  48.320         63.33	     8.718
  48.340         70.00	     9.165
  48.360         63.33	     8.718
  48.380         55.83	     8.185
  48.400         55.00	     8.124
  48.420         51.67	     7.874
  48.440         55.83	     8.185
  48.460         54.17	     8.062
  48.480         49.17	     7.681
  48.500         48.33	     7.616
  48.520         45.00	     7.348
  48.540         58.33	     8.367
  48.560         40.83	     7.000
  48.580         40.83	     7.000
  48.600         45.00	     7.348
  48.620         37.50	     6.708
  48.640         46.67	     7.483
  48.660         50.00	     7.746
  48.680         50.00	     7.746
  48.700         54.17	     8.062
  48.720         28.33	     5.831
  48.740         56.67	     8.246
  48.760         53.33	     8.000
  48.780         45.00	     7.348
  48.800         43.33	     7.211
  48.820         47.50	     7.550
  48.840         48.33	     7.616
  48.860         39.17	     6.856
  48.880         38.33	     6.782
  48.900         34.17	     6.403
  48.920         42.50	     7.141
  48.940         42.50	     7.141
  48.960         42.50	     7.141
  48.980         39.17	     6.856
  49.000         34.17	     6.403
  49.020         39.17	     6.856
  49.040         40.83	     7.000
  49.060         45.83	     7.416
  49.080         28.33	     5.831
  49.100         47.50	     7.550
  49.120         37.50	     6.708
  49.140         39.17	     6.856
  49.160         41.67	     7.071
  49.180         31.67	     6.164
  49.200         45.00	     7.348
  49.220         40.83	     7.000
  49.240         46.67	     7.483
  49.260         52.50	     7.937
  49.280         51.67	     7.874
  49.300         58.33	     8.367
  49.320         51.67	     7.874
  49.340         51.67	     7.874
  49.360         44.17	     7.280
  49.380         63.33	     8.718
  49.400         58.33	     8.367
  49.420         53.33	     8.000
  49.440         39.17	     6.856
  49.460         46.67	     7.483
  49.480         40.83	     7.000
  49.500         40.00	     6.928
  49.520         55.00	     8.124
  49.540         57.50	     8.307
  49.560         60.83	     8.544
  49.580         42.50	     7.141
  49.600         46.67	     7.483
  49.620         47.50	     7.550
  49.640         48.33	     7.616
  49.660         45.83	     7.416
  49.680         49.17	     7.681
  49.700         55.83	     8.185
  49.720         51.67	     7.874
  49.740         42.50	     7.141
  49.760         57.50	     8.307
  49.780         62.50	     8.660
  49.800         60.83	     8.544
  49.820         77.50	     9.644
  49.840         67.50	     9.000
  49.860         65.83	     8.888
  49.880         70.83	     9.220
  49.900         75.83	     9.539
  49.920         78.33	     9.695
  49.940         81.67	     9.899
  49.960         82.50	     9.950
  49.980         59.17	     8.426
  50.000         76.67	     9.592
  50.020         92.50	    10.536
  50.040         80.83	     9.849
  50.060         92.50	    10.536
  50.080         80.00	     9.798
  50.100         81.67	     9.899
  50.120         99.17	    10.909
  50.140        111.67	    11.576
  50.160        126.67	    12.329
  50.180        151.67	    13.491
  50.200        160.00	    13.856
  50.220        158.33	    13.784
  50.240        130.00	    12.490
  50.260        104.17	    11.180
  50.280         96.67	    10.770
  50.300        123.33	    12.166
  50.320        104.17	    11.180
  50.340        103.33	    11.136
  50.360         95.00	    10.677
  50.380         76.67	     9.592
  50.400         70.00	     9.165
  50.420         69.17	     9.110
  50.440         54.17	     8.062
  50.460         50.83	     7.810
  50.480         63.33	     8.718
  50.500         56.67	     8.246
  50.520         54.17	     8.062
  50.540         40.83	     7.000
  50.560         72.50	     9.327
  50.580         50.00	     7.746
  50.600         59.17	     8.426
  50.620         75.00	     9.487
  50.640         85.83	    10.149
  50.660         86.67	    10.198
  50.680         65.83	     8.888
  50.700         80.00	     9.798
  50.720         56.67	     8.246
  50.740         64.17	     8.775
  50.760         66.67	     8.944
  50.780         70.00	     9.165
  50.800         57.50	     8.307
  50.820         62.50	     8.660
  50.840         50.00	     7.746
  50.860         58.33	     8.367
  50.880         46.67	     7.483
  50.900         45.83	     7.416
  50.920         37.50	     6.708
  50.940         40.83	     7.000
  50.960         45.83	     7.416
  50.980         34.17	     6.403
  51.000         41.67	     7.071
  51.020         37.50	     6.708
  51.040         41.67	     7.071
  51.060         33.33	     6.325
  51.080         35.83	     6.557
  51.100         32.50	     6.245
  51.120         49.17	     7.681
  51.140         38.33	     6.782
  51.160         68.33	     9.055
  51.180         79.17	     9.747
  51.200         91.67	    10.488
  51.220         73.33	     9.381
  51.240         68.33	     9.055
  51.260         60.00	     8.485
  51.280         70.83	     9.220
  51.300         73.33	     9.381
  51.320         80.00	     9.798
  51.340         76.67	     9.592
  51.360         64.17	     8.775
  51.380         59.17	     8.426
  51.400         51.67	     7.874
  51.420         58.33	     8.367
  51.440         62.50	     8.660
  51.460         40.83	     7.000
  51.480         38.33	     6.782
  51.500         39.17	     6.856
  51.520         41.67	     7.071
  51.540         30.83	     6.083
  51.560         38.33	     6.782
  51.580         34.17	     6.403
  51.600         40.00	     6.928
  51.620         24.17	     5.385
  51.640         36.67	     6.633
  51.660         28.33	     5.831
  51.680         26.67	     5.657
  51.700         30.00	     6.000
  51.720         35.00	     6.481
  51.740         32.50	     6.245
  51.760         34.17	     6.403
  51.780         32.50	     6.245
  51.800         36.67	     6.633
  51.820         29.17	     5.916
  51.840         28.33	     5.831
  51.860         31.67	     6.164
  51.880         38.33	     6.782
  51.900         26.67	     5.657
  51.920         31.67	     6.164
  51.940         31.67	     6.164
  51.960         35.83	     6.557
  51.980         27.50	     5.745
  52.000         31.67	     6.164
  52.020         32.50	     6.245
  52.040         34.17	     6.403
  52.060         46.67	     7.483
  52.080         41.67	     7.071
  52.100         38.33	     6.782
  52.120         40.83	     7.000
  52.140         53.33	     8.000
  52.160         47.50	     7.550
  52.180         54.17	     8.062
  52.200         47.50	     7.550
  52.220         46.67	     7.483
  52.240         50.83	     7.810
  52.260         46.67	     7.483
  52.280         46.67	     7.483
  52.300         57.50	     8.307
  52.320         33.33	     6.325
  52.340         54.17	     8.062
  52.360         49.17	     7.681
  52.380         48.33	     7.616
  52.400         50.00	     7.746
  52.420         51.67	     7.874
  52.440         51.67	     7.874
  52.460         51.67	     7.874
  52.480         53.33	     8.000
  52.500         45.83	     7.416
  52.520         44.17	     7.280
  52.540         55.83	     8.185
  52.560         70.83	     9.220
  52.580         59.17	     8.426
  52.600         65.83	     8.888
  52.620         49.17	     7.681
  52.640         59.17	     8.426
  52.660         39.17	     6.856
  52.680         44.17	     7.280
  52.700         45.83	     7.416
  52.720         56.67	     8.246
  52.740         69.17	     9.110
  52.760         55.00	     8.124
  52.780         54.17	     8.062
  52.800         56.67	     8.246
  52.820         36.67	     6.633
  52.840         50.83	     7.810
  52.860         45.00	     7.348
  52.880         44.17	     7.280
  52.900         48.33	     7.616
  52.920         51.67	     7.874
  52.940         46.67	     7.483
  52.960         37.50	     6.708
  52.980         37.50	     6.708
  53.000         55.83	     8.185
  53.020         33.33	     6.325
  53.040         49.17	     7.681
  53.060         50.00	     7.746
  53.080         38.33	     6.782
  53.100         49.17	     7.681
  53.120         43.33	     7.211
  53.140         44.17	     7.280
  53.160         63.33	     8.718
  53.180         53.33	     8.000
  53.200         48.33	     7.616
  53.220         45.00	     7.348
  53.240         43.33	     7.211
  53.260         48.33	     7.616
  53.280         63.33	     8.718
  53.300         53.33	     8.000
  53.320         56.67	     8.246
  53.340         41.67	     7.071
  53.360         61.67	     8.602
  53.380         52.50	     7.937
  53.400         48.33	     7.616
  53.420         48.33	     7.616
  53.440         55.00	     8.124
  53.460         44.17	     7.280
  53.480         46.67	     7.483
  53.500         58.33	     8.367
  53.520         43.33	     7.211
  53.540         45.00	     7.348
  53.560         35.00	     6.481
  53.580         36.67	     6.633
  53.600         45.00	     7.348
  53.620         33.33	     6.325
  53.640         35.83	     6.557
  53.660         35.83	     6.557
  53.680         37.50	     6.708
  53.700         38.33	     6.782
  53.720         42.50	     7.141
  53.740         44.17	     7.280
  53.760         40.83	     7.000
  53.780         25.00	     5.477
  53.800         43.33	     7.211
  53.820         45.83	     7.416
  53.840         50.00	     7.746
  53.860         54.17	     8.062
  53.880         48.33	     7.616
  53.900         50.00	     7.746
  53.920         50.00	     7.746
  53.940         40.00	     6.928
  53.960         43.33	     7.211
  53.980         31.67	     6.164
  54.000         37.50	     6.708
  54.020         38.33	     6.782
  54.040         38.33	     6.782
  54.060         39.17	     6.856
  54.080         43.33	     7.211
  54.100         35.83	     6.557
  54.120         42.50	     7.141
  54.140         36.67	     6.633
  54.160         45.83	     7.416
  54.180         37.50	     6.708
  54.200         37.50	     6.708
  54.220         42.50	     7.141
  54.240         53.33	     8.000
  54.260         46.67	     7.483
  54.280         45.83	     7.416
  54.300         43.33	     7.211
  54.320         46.67	     7.483
  54.340         60.83	     8.544
  54.360         45.83	     7.416
  54.380         55.00	     8.124
  54.400         51.67	     7.874
  54.420         67.50	     9.000
  54.440         52.50	     7.937
  54.460         57.50	     8.307
  54.480         60.83	     8.544
  54.500         44.17	     7.280
  54.520         40.83	     7.000
  54.540         60.83	     8.544
  54.560         51.67	     7.874
  54.580         60.83	     8.544
  54.600         60.83	     8.544
  54.620         63.33	     8.718
  54.640         62.50	     8.660
  54.660         66.67	     8.944
  54.680         49.17	     7.681
  54.700         65.00	     8.832
  54.720         63.33	     8.718
  54.740         51.67	     7.874
  54.760         40.83	     7.000
  54.780         63.33	     8.718
  54.800         51.67	     7.874
  54.820         51.67	     7.874
  54.840         66.67	     8.944
  54.860         55.83	     8.185
  54.880         60.00	     8.485
  54.900         86.67	    10.198
  54.920         96.67	    10.770
  54.940         91.67	    10.488
  54.960         66.67	     8.944
  54.980         78.33	     9.695
  55.000         56.67	     8.246
  55.020         70.00	     9.165
  55.040         56.67	     8.246
  55.060         58.33	     8.367
  55.080         70.00	     9.165
  55.100         65.83	     8.888
  55.120         60.00	     8.485
  55.140         57.50	     8.307
  55.160         64.17	     8.775
  55.180         69.17	     9.110
  55.200         70.00	     9.165
  55.220         61.67	     8.602
  55.240         59.17	     8.426
  55.260         52.50	     7.937
  55.280         69.17	     9.110
  55.300         61.67	     8.602
  55.320         52.50	     7.937
  55.340         71.67	     9.274
  55.360         83.33	    10.000
  55.380         80.00	     9.798
  55.400         82.50	     9.950
  55.420         58.33	     8.367
  55.440         66.67	     8.944
  55.460         61.67	     8.602
  55.480         75.00	     9.487
  55.500         75.83	     9.539
  55.520         70.00	     9.165
  55.540         59.17	     8.426
  55.560         58.33	     8.367
  55.580         60.83	     8.544
  55.600         67.50	     9.000
  55.620         62.50	     8.660
  55.640         60.00	     8.485
  55.660         60.00	     8.485
  55.680         68.33	     9.055
  55.700         75.00	     9.487
  55.720         71.67	     9.274
  55.740         75.83	     9.539
  55.760         75.00	     9.487
  55.780         85.83	    10.149
  55.800         71.67	     9.274
  55.820         85.83	    10.149
  55.840         85.00	    10.100
  55.860         98.33	    10.863
  55.880         85.00	    10.100
  55.900         90.83	    10.440
  55.920         88.33	    10.296
  55.940         89.17	    10.344
  55.960         95.00	    10.677
  55.980         84.17	    10.050
  56.000         78.33	     9.695
  56.020         80.83	     9.849
  56.040         75.00	     9.487
  56.060         79.17	     9.747
  56.080         58.33	     8.367
  56.100         56.67	     8.246
  56.120         54.17	     8.062
  56.140         73.33	     9.381
  56.160         59.17	     8.426
  56.180         56.67	     8.246
  56.200         60.00	     8.485
  56.220         55.83	     8.185
  56.240         57.50	     8.307
  56.260         39.17	     6.856
  56.280         52.50	     7.937
  56.300         54.17	     8.062
  56.320         48.33	     7.616
  56.340         49.17	     7.681
  56.360         35.00	     6.481
  56.380         37.50	     6.708
  56.400         45.00	     7.348
  56.420         44.17	     7.280
  56.440         41.67	     7.071
  56.460         45.83	     7.416
  56.480         46.67	     7.483
  56.500         49.17	     7.681
  56.520         44.17	     7.280
  56.540         40.83	     7.000
  56.560         32.50	     6.245
  56.580         43.33	     7.211
  56.600         52.50	     7.937
  56.620         55.00	     8.124
  56.640         45.00	     7.348
  56.660         53.33	     8.000
  56.680         36.67	     6.633
  56.700         47.50	     7.550
  56.720         35.83	     6.557
  56.740         46.67	     7.483
  56.760         50.00	     7.746
  56.780         50.83	     7.810
  56.800         29.17	     5.916
  56.820         45.00	     7.348
  56.840         46.67	     7.483
  56.860         45.83	     7.416
  56.880         49.17	     7.681
  56.900         44.17	     7.280
  56.920         54.17	     8.062
  56.940         53.33	     8.000
  56.960         35.00	     6.481
  56.980         30.00	     6.000
  57.000         62.50	     8.660
  57.020         47.50	     7.550
  57.040         46.67	     7.483
  57.060         37.50	     6.708
  57.080         44.17	     7.280
  57.100         42.50	     7.141
  57.120         35.00	     6.481
  57.140         49.17	     7.681
  57.160         35.83	     6.557
  57.180         44.17	     7.280
  57.200         32.50	     6.245
  57.220         47.50	     7.550
  57.240         40.83	     7.000
  57.260         44.17	     7.280
  57.280         47.50	     7.550
  57.300         42.50	     7.141
  57.320         37.50	     6.708
  57.340         32.50	     6.245
  57.360         39.17	     6.856
  57.380         34.17	     6.403
  57.400         32.50	     6.245
  57.420         31.67	     6.164
  57.440         45.83	     7.416
  57.460         41.67	     7.071
  57.480         41.67	     7.071
  57.500         40.83	     7.000
  57.520         31.67	     6.164
  57.540         33.33	     6.325
  57.560         37.50	     6.708
  57.580         39.17	     6.856
  57.600         33.33	     6.325
  57.620         42.50	     7.141
  57.640         45.83	     7.416
  57.660         46.67	     7.483
  57.680         51.67	     7.874
  57.700         37.50	     6.708
  57.720         39.17	     6.856
  57.740         32.50	     6.245
  57.760         38.33	     6.782
  57.780         45.00	     7.348
  57.800         33.33	     6.325
  57.820         40.83	     7.000
  57.840         41.67	     7.071
  57.860         35.83	     6.557
  57.880         43.33	     7.211
  57.900         33.33	     6.325
  57.920         29.17	     5.916
  57.940         42.50	     7.141
  57.960         45.00	     7.348
  57.980         40.00	     6.928
  58.000         33.33	     6.325
  58.020         41.67	     7.071
  58.040         50.00	     7.746
  58.060         30.83	     6.083
  58.080         34.17	     6.403
  58.100         34.17	     6.403
  58.120         44.17	     7.280
  58.140         44.17	     7.280
  58.160         47.50	     7.550
  58.180         55.83	     8.185
  58.200         58.33	     8.367
  58.220         41.67	     7.071
  58.240         45.83	     7.416
  58.260         49.17	     7.681
  58.280         50.83	     7.810
  58.300         65.00	     8.832
  58.320         46.67	     7.483
  58.340         46.67	     7.483
  58.360         46.67	     7.483
  58.380         45.00	     7.348
  58.400         49.17	     7.681
  58.420         50.00	     7.746
  58.440         55.83	     8.185
  58.460         44.17	     7.280
  58.480         57.50	     8.307
  58.500         49.17	     7.681
  58.520         45.00	     7.348
  58.540         41.67	     7.071
  58.560         53.33	     8.000
  58.580         56.67	     8.246
  58.600         49.17	     7.681
  58.620         58.33	     8.367
  58.640         61.67	     8.602
  58.660         70.83	     9.220
  58.680         51.67	     7.874
  58.700         70.00	     9.165
  58.720         62.50	     8.660
  58.740         48.33	     7.616
  58.760         62.50	     8.660
  58.780         63.33	     8.718
  58.800         65.83	     8.888
  58.820         53.33	     8.000
  58.840         65.83	     8.888
  58.860         56.67	     8.246
  58.880         61.67	     8.602
  58.900         57.50	     8.307
  58.920         57.50	     8.307
  58.940         61.67	     8.602
  58.960         65.00	     8.832
  58.980         68.33	     9.055
  59.000         60.83	     8.544
  59.020         56.67	     8.246
  59.040         74.17	     9.434
  59.060         59.17	     8.426
  59.080         76.67	     9.592
  59.100         71.67	     9.274
  59.120         60.83	     8.544
  59.140         68.33	     9.055
  59.160         72.50	     9.327
  59.180         71.67	     9.274
  59.200         83.33	    10.000
  59.220         63.33	     8.718
  59.240         84.17	    10.050
  59.260         66.67	     8.944
  59.280         69.17	     9.110
  59.300         55.00	     8.124
  59.320         70.83	     9.220
  59.340         58.33	     8.367
  59.360         75.83	     9.539
  59.380         65.83	     8.888
  59.400         57.50	     8.307
  59.420         68.33	     9.055
  59.440         55.83	     8.185
  59.460         73.33	     9.381
  59.480         72.50	     9.327
  59.500         39.17	     6.856
  59.520         60.00	     8.485
  59.540         50.83	     7.810
  59.560         48.33	     7.616
  59.580         45.83	     7.416
  59.600         54.17	     8.062
  59.620         60.83	     8.544
  59.640         37.50	     6.708
  59.660         52.50	     7.937
  59.680         49.17	     7.681
  59.700         50.00	     7.746
  59.720         49.17	     7.681
  59.740         42.50	     7.141
  59.760         55.83	     8.185
  59.780         60.83	     8.544
  59.800         54.17	     8.062
  59.820         49.17	     7.681
  59.840         48.33	     7.616
  59.860         73.33	     9.381
  59.880         73.33	     9.381
  59.900         81.67	     9.899
  59.920         84.17	    10.050
  59.940         94.17	    10.630
  59.960        119.17	    11.958
  59.980        155.83	    13.675
  60.000        167.50	    14.177
  60.020        169.17	    14.248
  60.040        148.33	    13.342
  60.060        118.33	    11.916
  60.080        113.33	    11.662
  60.100        103.33	    11.136
  60.120         96.67	    10.770
  60.140        115.00	    11.747
  60.160        125.83	    12.288
  60.180        132.50	    12.610
  60.200        102.50	    11.091
  60.220         96.67	    10.770
  60.240         90.00	    10.392
  60.260         63.33	     8.718
  60.280         63.33	     8.718
  60.300         65.00	     8.832
  60.320         55.83	     8.185
  60.340         63.33	     8.718
  60.360         59.17	     8.426
  60.380         51.67	     7.874
  60.400         55.00	     8.124
  60.420         42.50	     7.141
  60.440         66.67	     8.944
  60.460         63.33	     8.718
  60.480         53.33	     8.000
  60.500         70.83	     9.220
  60.520         56.67	     8.246
  60.540         62.50	     8.660
  60.560         48.33	     7.616
  60.580         48.33	     7.616
  60.600         50.83	     7.810
  60.620         51.67	     7.874
  60.640         64.17	     8.775
  60.660         64.17	     8.775
  60.680         55.00	     8.124
  60.700         50.83	     7.810
  60.720         60.00	     8.485
  60.740         56.67	     8.246
  60.760         74.17	     9.434
  60.780         70.83	     9.220
  60.800         71.67	     9.274
  60.820         71.67	     9.274
  60.840         75.00	     9.487
  60.860         86.67	    10.198
  60.880         82.50	     9.950
  60.900         73.33	     9.381
  60.920         65.00	     8.832
  60.940         90.00	    10.392
  60.960         83.33	    10.000
  60.980         69.17	     9.110
  61.000         88.33	    10.296
  61.020         68.33	     9.055
  61.040         67.50	     9.000
  61.060         84.17	    10.050
  61.080         65.00	     8.832
  61.100         95.83	    10.724
  61.120         70.00	     9.165
  61.140         68.33	     9.055
  61.160         58.33	     8.367
  61.180         67.50	     9.000
  61.200         64.17	     8.775
  61.220         55.83	     8.185
  61.240         55.00	     8.124
  61.260         48.33	     7.616
  61.280         63.33	     8.718
  61.300         72.50	     9.327
  61.320         53.33	     8.000
  61.340         53.33	     8.000
  61.360         42.50	     7.141
  61.380         66.67	     8.944
  61.400         69.17	     9.110
  61.420         65.83	     8.888
  61.440         74.17	     9.434
  61.460         75.00	     9.487
  61.480         73.33	     9.381
  61.500         69.17	     9.110
  61.520         95.83	    10.724
  61.540         75.83	     9.539
  61.560         56.67	     8.246
  61.580         70.83	     9.220
  61.600         95.83	    10.724
  61.620         76.67	     9.592
  61.640         90.00	    10.392
  61.660         83.33	    10.000
  61.680         83.33	    10.000
  61.700         85.83	    10.149
  61.720         66.67	     8.944
  61.740         74.17	     9.434
  61.760         73.33	     9.381
  61.780         77.50	     9.644
  61.800         62.50	     8.660
  61.820         70.00	     9.165
  61.840         66.67	     8.944
  61.860         69.17	     9.110
  61.880         54.17	     8.062
  61.900         71.67	     9.274
  61.920         70.83	     9.220
  61.940         53.33	     8.000
  61.960         73.33	     9.381
  61.980         67.50	     9.000
  62.000         63.33	     8.718
  62.020         73.33	     9.381
  62.040         73.33	     9.381
  62.060         65.83	     8.888
  62.080         58.33	     8.367
  62.100         63.33	     8.718
  62.120         61.67	     8.602
  62.140         48.33	     7.616
  62.160         51.67	     7.874
  62.180         54.17	     8.062
  62.200         49.17	     7.681
  62.220         49.17	     7.681
  62.240         49.17	     7.681
  62.260         52.50	     7.937
  62.280         47.50	     7.550
  62.300         48.33	     7.616
  62.320         44.17	     7.280
  62.340         50.83	     7.810
  62.360         49.17	     7.681
  62.380         47.50	     7.550
  62.400         37.50	     6.708
  62.420         49.17	     7.681
  62.440         40.00	     6.928
  62.460         40.00	     6.928
  62.480         43.33	     7.211
  62.500         41.67	     7.071
  62.520         49.17	     7.681
  62.540         47.50	     7.550
  62.560         42.50	     7.141
  62.580         42.50	     7.141
  62.600         40.00	     6.928
  62.620         41.67	     7.071
  62.640         41.67	     7.071
  62.660         70.00	     9.165
  62.680         75.00	     9.487
  62.700         67.50	     9.000
  62.720         50.00	     7.746
  62.740         59.17	     8.426
  62.760         55.83	     8.185
  62.780         39.17	     6.856
  62.800         50.83	     7.810
  62.820         59.17	     8.426
  62.840         55.00	     8.124
  62.860         62.50	     8.660
  62.880         41.67	     7.071
  62.900         60.83	     8.544
  62.920         53.33	     8.000
  62.940         60.83	     8.544
  62.960         40.83	     7.000
  62.980         61.67	     8.602
  63.000         50.83	     7.810
  63.020         53.33	     8.000
  63.040         43.33	     7.211
  63.060         42.50	     7.141
  63.080         50.83	     7.810
  63.100         45.83	     7.416
  63.120         33.33	     6.325
  63.140         48.33	     7.616
  63.160         40.00	     6.928
  63.180         39.17	     6.856
  63.200         39.17	     6.856
  63.220         42.50	     7.141
  63.240         41.67	     7.071
  63.260         26.67	     5.657
  63.280         52.50	     7.937
  63.300         45.00	     7.348
  63.320         39.17	     6.856
  63.340         40.00	     6.928
  63.360         40.00	     6.928
  63.380         40.83	     7.000
  63.400         45.83	     7.416
  63.420         45.00	     7.348
  63.440         47.50	     7.550
  63.460         54.17	     8.062
  63.480         57.50	     8.307
  63.500         54.17	     8.062
  63.520         60.83	     8.544
  63.540         54.17	     8.062
  63.560         62.50	     8.660
  63.580         45.83	     7.416
  63.600         51.67	     7.874
  63.620         48.33	     7.616
  63.640         43.33	     7.211
  63.660         50.83	     7.810
  63.680         50.00	     7.746
  63.700         60.83	     8.544
  63.720         60.00	     8.485
  63.740         46.67	     7.483
  63.760         43.33	     7.211
  63.780         50.83	     7.810
  63.800         54.17	     8.062
  63.820         55.00	     8.124
  63.840         55.83	     8.185
  63.860         50.00	     7.746
  63.880         52.50	     7.937
  63.900         65.00	     8.832
  63.920         49.17	     7.681
  63.940         58.33	     8.367
  63.960         54.17	     8.062
  63.980         46.67	     7.483
  64.000         65.83	     8.888
  64.020         69.17	     9.110
  64.040         65.83	     8.888
  64.060         70.00	     9.165
  64.080         64.17	     8.775
  64.100         63.33	     8.718
  64.120         69.17	     9.110
  64.140         71.67	     9.274
  64.160         71.67	     9.274
  64.180         75.00	     9.487
  64.200         75.00	     9.487
  64.220         55.83	     8.185
  64.240         72.50	     9.327
  64.260         51.67	     7.874
  64.280         63.33	     8.718
  64.300         70.83	     9.220
  64.320         38.33	     6.782
  64.340         60.00	     8.485
  64.360         52.50	     7.937
  64.380         53.33	     8.000
  64.400         69.17	     9.110
  64.420         46.67	     7.483
  64.440         49.17	     7.681
  64.460         60.83	     8.544
  64.480         44.17	     7.280
  64.500         64.17	     8.775
  64.520         55.00	     8.124
  64.540         52.50	     7.937
  64.560         46.67	     7.483
  64.580         50.00	     7.746
  64.600         50.00	     7.746
  64.620         51.67	     7.874
  64.640         43.33	     7.211
  64.660         39.17	     6.856
  64.680         56.67	     8.246
  64.700         45.83	     7.416
  64.720         50.00	     7.746
  64.740         50.00	     7.746
  64.760         55.00	     8.124
  64.780         54.17	     8.062
  64.800         69.17	     9.110
  64.820         49.17	     7.681
  64.840         53.33	     8.000
  64.860         54.17	     8.062
  64.880         63.33	     8.718
  64.900         63.33	     8.718
  64.920         60.83	     8.544
  64.940         47.50	     7.550
  64.960         66.67	     8.944
  64.980         62.50	     8.660
  65.000         48.33	     7.616
