
Filename:
	C:\Program Files\Thermo Electron\WinXRD\Datafiles\F_HERMAN\GEO\GG_2_SFT.raw

File Created:
	October 12, 2020 - 01:37 PM

Specimen Id:
	GG2 SFT

Specimen Name:
	

Specimen Description:
	

Comment:
Scan Type: 2Theta Scan
Start Angle: 3 deg.
Stop Angle: 65 deg.
Num Points: 3101
Step Size: 0.02 deg.
Scan Rate: 1.000000
Scan Mode: Continuous
Wavelength: 1.540562
\Kalpha1: 1.540562	\Kalpha2: 1.544390	\Kbeta: 1.392218

Optics:
		Detector:
			 Type: Fixed Slits
		Tube: 
			 Type: Fixed Slits


Datas:
 Pos [deg]       Rate [CPS]      ESD [-]

Range 1 ---> Iteration 1
   3.000        378.33	    21.307
   3.020        370.00	    21.071
   3.040        350.00	    20.494
   3.060        399.17	    21.886
   3.080        362.50	    20.857
   3.100        376.67	    21.260
   3.120        370.83	    21.095
   3.140        400.83	    21.932
   3.160        365.00	    20.928
   3.180        356.67	    20.688
   3.200        351.67	    20.543
   3.220        360.00	    20.785
   3.240        336.67	    20.100
   3.260        352.50	    20.567
   3.280        341.67	    20.248
   3.300        360.00	    20.785
   3.320        320.00	    19.596
   3.340        347.50	    20.421
   3.360        333.33	    20.000
   3.380        334.17	    20.025
   3.400        335.00	    20.050
   3.420        338.33	    20.149
   3.440        367.50	    21.000
   3.460        326.67	    19.799
   3.480        320.83	    19.621
   3.500        311.67	    19.339
   3.520        315.00	    19.442
   3.540        338.33	    20.149
   3.560        298.33	    18.921
   3.580        300.83	    19.000
   3.600        320.83	    19.621
   3.620        324.17	    19.723
   3.640        321.67	    19.647
   3.660        286.67	    18.547
   3.680        296.67	    18.868
   3.700        304.17	    19.105
   3.720        328.33	    19.849
   3.740        290.00	    18.655
   3.760        293.33	    18.762
   3.780        295.83	    18.841
   3.800        295.00	    18.815
   3.820        283.33	    18.439
   3.840        276.67	    18.221
   3.860        249.17	    17.292
   3.880        303.33	    19.079
   3.900        272.50	    18.083
   3.920        281.67	    18.385
   3.940        267.50	    17.916
   3.960        292.50	    18.735
   3.980        275.00	    18.166
   4.000        265.83	    17.861
   4.020        303.33	    19.079
   4.040        265.00	    17.833
   4.060        257.50	    17.578
   4.080        295.00	    18.815
   4.100        258.33	    17.607
   4.120        265.00	    17.833
   4.140        271.67	    18.055
   4.160        254.17	    17.464
   4.180        256.67	    17.550
   4.200        258.33	    17.607
   4.220        256.67	    17.550
   4.240        255.00	    17.493
   4.260        268.33	    17.944
   4.280        257.50	    17.578
   4.300        264.17	    17.804
   4.320        281.67	    18.385
   4.340        254.17	    17.464
   4.360        253.33	    17.436
   4.380        258.33	    17.607
   4.400        218.33	    16.186
   4.420        243.33	    17.088
   4.440        254.17	    17.464
   4.460        269.17	    17.972
   4.480        232.50	    16.703
   4.500        241.67	    17.029
   4.520        216.67	    16.125
   4.540        232.50	    16.703
   4.560        211.67	    15.937
   4.580        229.17	    16.583
   4.600        243.33	    17.088
   4.620        255.83	    17.521
   4.640        234.17	    16.763
   4.660        247.50	    17.234
   4.680        236.67	    16.852
   4.700        232.50	    16.703
   4.720        216.67	    16.125
   4.740        243.33	    17.088
   4.760        225.00	    16.432
   4.780        231.67	    16.673
   4.800        210.00	    15.875
   4.820        225.00	    16.432
   4.840        218.33	    16.186
   4.860        219.17	    16.217
   4.880        203.33	    15.620
   4.900        225.83	    16.462
   4.920        188.33	    15.033
   4.940        242.50	    17.059
   4.960        223.33	    16.371
   4.980        217.50	    16.155
   5.000        224.17	    16.401
   5.020        197.50	    15.395
   5.040        202.50	    15.588
   5.060        225.00	    16.432
   5.080        201.67	    15.556
   5.100        233.33	    16.733
   5.120        190.00	    15.100
   5.140        205.00	    15.684
   5.160        222.50	    16.340
   5.180        232.50	    16.703
   5.200        194.17	    15.264
   5.220        217.50	    16.155
   5.240        192.50	    15.199
   5.260        203.33	    15.620
   5.280        210.83	    15.906
   5.300        208.33	    15.811
   5.320        207.50	    15.780
   5.340        212.50	    15.969
   5.360        219.17	    16.217
   5.380        187.50	    15.000
   5.400        208.33	    15.811
   5.420        209.17	    15.843
   5.440        187.50	    15.000
   5.460        200.83	    15.524
   5.480        191.67	    15.166
   5.500        185.00	    14.900
   5.520        181.67	    14.765
   5.540        183.33	    14.832
   5.560        213.33	    16.000
   5.580        218.33	    16.186
   5.600        176.67	    14.560
   5.620        166.67	    14.142
   5.640        167.50	    14.177
   5.660        185.83	    14.933
   5.680        163.33	    14.000
   5.700        160.83	    13.892
   5.720        194.17	    15.264
   5.740        158.33	    13.784
   5.760        180.00	    14.697
   5.780        181.67	    14.765
   5.800        190.83	    15.133
   5.820        175.83	    14.526
   5.840        176.67	    14.560
   5.860        201.67	    15.556
   5.880        197.50	    15.395
   5.900        201.67	    15.556
   5.920        175.00	    14.491
   5.940        176.67	    14.560
   5.960        206.67	    15.748
   5.980        206.67	    15.748
   6.000        192.50	    15.199
   6.020        193.33	    15.232
   6.040        187.50	    15.000
   6.060        210.00	    15.875
   6.080        186.67	    14.967
   6.100        219.17	    16.217
   6.120        202.50	    15.588
   6.140        205.83	    15.716
   6.160        209.17	    15.843
   6.180        208.33	    15.811
   6.200        230.83	    16.643
   6.220        227.50	    16.523
   6.240        208.33	    15.811
   6.260        210.83	    15.906
   6.280        231.67	    16.673
   6.300        207.50	    15.780
   6.320        202.50	    15.588
   6.340        201.67	    15.556
   6.360        177.50	    14.595
   6.380        164.17	    14.036
   6.400        165.83	    14.107
   6.420        171.67	    14.353
   6.440        185.83	    14.933
   6.460        178.33	    14.629
   6.480        181.67	    14.765
   6.500        180.83	    14.731
   6.520        153.33	    13.565
   6.540        171.67	    14.353
   6.560        161.67	    13.928
   6.580        170.00	    14.283
   6.600        150.83	    13.454
   6.620        165.00	    14.071
   6.640        175.83	    14.526
   6.660        144.17	    13.153
   6.680        176.67	    14.560
   6.700        174.17	    14.457
   6.720        157.50	    13.748
   6.740        171.67	    14.353
   6.760        180.83	    14.731
   6.780        157.50	    13.748
   6.800        167.50	    14.177
   6.820        162.50	    13.964
   6.840        165.00	    14.071
   6.860        143.33	    13.115
   6.880        167.50	    14.177
   6.900        158.33	    13.784
   6.920        159.17	    13.820
   6.940        145.00	    13.191
   6.960        140.00	    12.961
   6.980        162.50	    13.964
   7.000        123.33	    12.166
   7.020        143.33	    13.115
   7.040        169.17	    14.248
   7.060        155.83	    13.675
   7.080        136.67	    12.806
   7.100        141.67	    13.038
   7.120        164.17	    14.036
   7.140        140.00	    12.961
   7.160        140.00	    12.961
   7.180        126.67	    12.329
   7.200        154.17	    13.601
   7.220        118.33	    11.916
   7.240        120.83	    12.042
   7.260        160.83	    13.892
   7.280        139.17	    12.923
   7.300        135.83	    12.767
   7.320        137.50	    12.845
   7.340        153.33	    13.565
   7.360        123.33	    12.166
   7.380        140.00	    12.961
   7.400        144.17	    13.153
   7.420        138.33	    12.884
   7.440        122.50	    12.124
   7.460        130.00	    12.490
   7.480        142.50	    13.077
   7.500        123.33	    12.166
   7.520        120.83	    12.042
   7.540        145.83	    13.229
   7.560        149.17	    13.379
   7.580        124.17	    12.207
   7.600        120.00	    12.000
   7.620        138.33	    12.884
   7.640        127.50	    12.369
   7.660        133.33	    12.649
   7.680        119.17	    11.958
   7.700        122.50	    12.124
   7.720        131.67	    12.570
   7.740        153.33	    13.565
   7.760        122.50	    12.124
   7.780        105.83	    11.269
   7.800        110.00	    11.489
   7.820        144.17	    13.153
   7.840        135.83	    12.767
   7.860        136.67	    12.806
   7.880        110.83	    11.533
   7.900        127.50	    12.369
   7.920        125.83	    12.288
   7.940        120.00	    12.000
   7.960        128.33	    12.410
   7.980        122.50	    12.124
   8.000        135.83	    12.767
   8.020        155.83	    13.675
   8.040        141.67	    13.038
   8.060        136.67	    12.806
   8.080        135.83	    12.767
   8.100        135.83	    12.767
   8.120        140.00	    12.961
   8.140        142.50	    13.077
   8.160        131.67	    12.570
   8.180        119.17	    11.958
   8.200        126.67	    12.329
   8.220        137.50	    12.845
   8.240        137.50	    12.845
   8.260        120.83	    12.042
   8.280        125.83	    12.288
   8.300        125.00	    12.247
   8.320        124.17	    12.207
   8.340        127.50	    12.369
   8.360        133.33	    12.649
   8.380        125.00	    12.247
   8.400        150.00	    13.416
   8.420        128.33	    12.410
   8.440        164.17	    14.036
   8.460        149.17	    13.379
   8.480        156.67	    13.711
   8.500        149.17	    13.379
   8.520        128.33	    12.410
   8.540        150.00	    13.416
   8.560        145.83	    13.229
   8.580        133.33	    12.649
   8.600        140.83	    13.000
   8.620        170.83	    14.318
   8.640        167.50	    14.177
   8.660        145.00	    13.191
   8.680        184.17	    14.866
   8.700        185.00	    14.900
   8.720        197.50	    15.395
   8.740        226.67	    16.492
   8.760        225.83	    16.462
   8.780        254.17	    17.464
   8.800        264.17	    17.804
   8.820        282.50	    18.412
   8.840        348.33	    20.445
   8.860        351.67	    20.543
   8.880        353.33	    20.591
   8.900        344.17	    20.322
   8.920        401.67	    21.954
   8.940        373.33	    21.166
   8.960        311.67	    19.339
   8.980        283.33	    18.439
   9.000        221.67	    16.310
   9.020        187.50	    15.000
   9.040        180.00	    14.697
   9.060        142.50	    13.077
   9.080        112.50	    11.619
   9.100        133.33	    12.649
   9.120        123.33	    12.166
   9.140        115.83	    11.790
   9.160        142.50	    13.077
   9.180        125.00	    12.247
   9.200        134.17	    12.689
   9.220        116.67	    11.832
   9.240        125.00	    12.247
   9.260        121.67	    12.083
   9.280        110.00	    11.489
   9.300        100.83	    11.000
   9.320        116.67	    11.832
   9.340        108.33	    11.402
   9.360        105.00	    11.225
   9.380        107.50	    11.358
   9.400        114.17	    11.705
   9.420        104.17	    11.180
   9.440        107.50	    11.358
   9.460        106.67	    11.314
   9.480        108.33	    11.402
   9.500        110.00	    11.489
   9.520        126.67	    12.329
   9.540         85.83	    10.149
   9.560         97.50	    10.817
   9.580         94.17	    10.630
   9.600         99.17	    10.909
   9.620        122.50	    12.124
   9.640         95.00	    10.677
   9.660        100.83	    11.000
   9.680        105.00	    11.225
   9.700         99.17	    10.909
   9.720         99.17	    10.909
   9.740         75.83	     9.539
   9.760        106.67	    11.314
   9.780        124.17	    12.207
   9.800         86.67	    10.198
   9.820         89.17	    10.344
   9.840         80.83	     9.849
   9.860        100.00	    10.954
   9.880        108.33	    11.402
   9.900         93.33	    10.583
   9.920         82.50	     9.950
   9.940        107.50	    11.358
   9.960         97.50	    10.817
   9.980         80.83	     9.849
  10.000         83.33	    10.000
  10.020         74.17	     9.434
  10.040         75.83	     9.539
  10.060         82.50	     9.950
  10.080         89.17	    10.344
  10.100         85.83	    10.149
  10.120         93.33	    10.583
  10.140         93.33	    10.583
  10.160         80.83	     9.849
  10.180         78.33	     9.695
  10.200         90.00	    10.392
  10.220         69.17	     9.110
  10.240         78.33	     9.695
  10.260         90.00	    10.392
  10.280         86.67	    10.198
  10.300        108.33	    11.402
  10.320         76.67	     9.592
  10.340         93.33	    10.583
  10.360         98.33	    10.863
  10.380         99.17	    10.909
  10.400         87.50	    10.247
  10.420        103.33	    11.136
  10.440         96.67	    10.770
  10.460        105.00	    11.225
  10.480        110.83	    11.533
  10.500        119.17	    11.958
  10.520        129.17	    12.450
  10.540        110.83	    11.533
  10.560        123.33	    12.166
  10.580        140.00	    12.961
  10.600        116.67	    11.832
  10.620        100.83	    11.000
  10.640         98.33	    10.863
  10.660         85.00	    10.100
  10.680         89.17	    10.344
  10.700         90.83	    10.440
  10.720         89.17	    10.344
  10.740         87.50	    10.247
  10.760         85.00	    10.100
  10.780         84.17	    10.050
  10.800         85.83	    10.149
  10.820         87.50	    10.247
  10.840         80.83	     9.849
  10.860         79.17	     9.747
  10.880         65.83	     8.888
  10.900         90.00	    10.392
  10.920         83.33	    10.000
  10.940         69.17	     9.110
  10.960         78.33	     9.695
  10.980         73.33	     9.381
  11.000         79.17	     9.747
  11.020         82.50	     9.950
  11.040         80.83	     9.849
  11.060         83.33	    10.000
  11.080         74.17	     9.434
  11.100         82.50	     9.950
  11.120         78.33	     9.695
  11.140         75.00	     9.487
  11.160         72.50	     9.327
  11.180         67.50	     9.000
  11.200         80.83	     9.849
  11.220         90.83	    10.440
  11.240         75.83	     9.539
  11.260         80.00	     9.798
  11.280         75.00	     9.487
  11.300         56.67	     8.246
  11.320         75.83	     9.539
  11.340         78.33	     9.695
  11.360         76.67	     9.592
  11.380         75.83	     9.539
  11.400         76.67	     9.592
  11.420         71.67	     9.274
  11.440         83.33	    10.000
  11.460         67.50	     9.000
  11.480         79.17	     9.747
  11.500         76.67	     9.592
  11.520         76.67	     9.592
  11.540         86.67	    10.198
  11.560         91.67	    10.488
  11.580         77.50	     9.644
  11.600         79.17	     9.747
  11.620         76.67	     9.592
  11.640         74.17	     9.434
  11.660         71.67	     9.274
  11.680         70.00	     9.165
  11.700         71.67	     9.274
  11.720         61.67	     8.602
  11.740         61.67	     8.602
  11.760         78.33	     9.695
  11.780         79.17	     9.747
  11.800         67.50	     9.000
  11.820         77.50	     9.644
  11.840         69.17	     9.110
  11.860         74.17	     9.434
  11.880         81.67	     9.899
  11.900         68.33	     9.055
  11.920         75.83	     9.539
  11.940         78.33	     9.695
  11.960         70.83	     9.220
  11.980         83.33	    10.000
  12.000         95.83	    10.724
  12.020         81.67	     9.899
  12.040        110.83	    11.533
  12.060         98.33	    10.863
  12.080         91.67	    10.488
  12.100        104.17	    11.180
  12.120        112.50	    11.619
  12.140        117.50	    11.874
  12.160        144.17	    13.153
  12.180        157.50	    13.748
  12.200        174.17	    14.457
  12.220        225.83	    16.462
  12.240        228.33	    16.553
  12.260        250.83	    17.349
  12.280        218.33	    16.186
  12.300        195.00	    15.297
  12.320        160.83	    13.892
  12.340        146.67	    13.266
  12.360        149.17	    13.379
  12.380        160.00	    13.856
  12.400        167.50	    14.177
  12.420        193.33	    15.232
  12.440        191.67	    15.166
  12.460        226.67	    16.492
  12.480        241.67	    17.029
  12.500        285.83	    18.520
  12.520        305.83	    19.157
  12.540        284.17	    18.466
  12.560        297.50	    18.894
  12.580        275.83	    18.193
  12.600        229.17	    16.583
  12.620        191.67	    15.166
  12.640        130.83	    12.530
  12.660        108.33	    11.402
  12.680         91.67	    10.488
  12.700         92.50	    10.536
  12.720        100.00	    10.954
  12.740         65.83	     8.888
  12.760         78.33	     9.695
  12.780         71.67	     9.274
  12.800         74.17	     9.434
  12.820         67.50	     9.000
  12.840         72.50	     9.327
  12.860         68.33	     9.055
  12.880         66.67	     8.944
  12.900         77.50	     9.644
  12.920         64.17	     8.775
  12.940         63.33	     8.718
  12.960         61.67	     8.602
  12.980         61.67	     8.602
  13.000         76.67	     9.592
  13.020         70.00	     9.165
  13.040         78.33	     9.695
  13.060         65.00	     8.832
  13.080         75.00	     9.487
  13.100         65.00	     8.832
  13.120         58.33	     8.367
  13.140         78.33	     9.695
  13.160         65.00	     8.832
  13.180         78.33	     9.695
  13.200         56.67	     8.246
  13.220         60.00	     8.485
  13.240         52.50	     7.937
  13.260         61.67	     8.602
  13.280         69.17	     9.110
  13.300         65.00	     8.832
  13.320         57.50	     8.307
  13.340         58.33	     8.367
  13.360         55.83	     8.185
  13.380         66.67	     8.944
  13.400         74.17	     9.434
  13.420         55.00	     8.124
  13.440         70.00	     9.165
  13.460         55.83	     8.185
  13.480         66.67	     8.944
  13.500         55.83	     8.185
  13.520         64.17	     8.775
  13.540         63.33	     8.718
  13.560         57.50	     8.307
  13.580         59.17	     8.426
  13.600         59.17	     8.426
  13.620         61.67	     8.602
  13.640         74.17	     9.434
  13.660         60.83	     8.544
  13.680         53.33	     8.000
  13.700         64.17	     8.775
  13.720         62.50	     8.660
  13.740         60.00	     8.485
  13.760         55.00	     8.124
  13.780         61.67	     8.602
  13.800         80.83	     9.849
  13.820         74.17	     9.434
  13.840         84.17	    10.050
  13.860         75.00	     9.487
  13.880         79.17	     9.747
  13.900         95.00	    10.677
  13.920         85.83	    10.149
  13.940         66.67	     8.944
  13.960         64.17	     8.775
  13.980         64.17	     8.775
  14.000         55.83	     8.185
  14.020         71.67	     9.274
  14.040         60.00	     8.485
  14.060         74.17	     9.434
  14.080         68.33	     9.055
  14.100         60.00	     8.485
  14.120         58.33	     8.367
  14.140         75.00	     9.487
  14.160         62.50	     8.660
  14.180         59.17	     8.426
  14.200         56.67	     8.246
  14.220         39.17	     6.856
  14.240         50.00	     7.746
  14.260         53.33	     8.000
  14.280         48.33	     7.616
  14.300         43.33	     7.211
  14.320         42.50	     7.141
  14.340         56.67	     8.246
  14.360         55.83	     8.185
  14.380         44.17	     7.280
  14.400         48.33	     7.616
  14.420         53.33	     8.000
  14.440         51.67	     7.874
  14.460         45.83	     7.416
  14.480         56.67	     8.246
  14.500         50.00	     7.746
  14.520         60.83	     8.544
  14.540         60.83	     8.544
  14.560         68.33	     9.055
  14.580         47.50	     7.550
  14.600         62.50	     8.660
  14.620         45.00	     7.348
  14.640         50.83	     7.810
  14.660         46.67	     7.483
  14.680         52.50	     7.937
  14.700         50.83	     7.810
  14.720         54.17	     8.062
  14.740         59.17	     8.426
  14.760         50.00	     7.746
  14.780         51.67	     7.874
  14.800         50.83	     7.810
  14.820         59.17	     8.426
  14.840         52.50	     7.937
  14.860         45.00	     7.348
  14.880         50.00	     7.746
  14.900         55.83	     8.185
  14.920         45.83	     7.416
  14.940         70.83	     9.220
  14.960         54.17	     8.062
  14.980         63.33	     8.718
  15.000         60.83	     8.544
  15.020         58.33	     8.367
  15.040         52.50	     7.937
  15.060         65.00	     8.832
  15.080         65.00	     8.832
  15.100         60.83	     8.544
  15.120         50.00	     7.746
  15.140         49.17	     7.681
  15.160         42.50	     7.141
  15.180         57.50	     8.307
  15.200         48.33	     7.616
  15.220         56.67	     8.246
  15.240         46.67	     7.483
  15.260         58.33	     8.367
  15.280         52.50	     7.937
  15.300         50.83	     7.810
  15.320         52.50	     7.937
  15.340         49.17	     7.681
  15.360         48.33	     7.616
  15.380         39.17	     6.856
  15.400         57.50	     8.307
  15.420         38.33	     6.782
  15.440         54.17	     8.062
  15.460         40.00	     6.928
  15.480         50.83	     7.810
  15.500         45.83	     7.416
  15.520         60.00	     8.485
  15.540         49.17	     7.681
  15.560         41.67	     7.071
  15.580         48.33	     7.616
  15.600         46.67	     7.483
  15.620         55.83	     8.185
  15.640         60.00	     8.485
  15.660         44.17	     7.280
  15.680         57.50	     8.307
  15.700         28.33	     5.831
  15.720         50.00	     7.746
  15.740         57.50	     8.307
  15.760         60.00	     8.485
  15.780         44.17	     7.280
  15.800         54.17	     8.062
  15.820         55.00	     8.124
  15.840         49.17	     7.681
  15.860         38.33	     6.782
  15.880         54.17	     8.062
  15.900         61.67	     8.602
  15.920         49.17	     7.681
  15.940         60.00	     8.485
  15.960         38.33	     6.782
  15.980         43.33	     7.211
  16.000         47.50	     7.550
  16.020         36.67	     6.633
  16.040         50.83	     7.810
  16.060         33.33	     6.325
  16.080         53.33	     8.000
  16.100         51.67	     7.874
  16.120         40.83	     7.000
  16.140         38.33	     6.782
  16.160         52.50	     7.937
  16.180         34.17	     6.403
  16.200         41.67	     7.071
  16.220         44.17	     7.280
  16.240         50.00	     7.746
  16.260         34.17	     6.403
  16.280         41.67	     7.071
  16.300         36.67	     6.633
  16.320         47.50	     7.550
  16.340         34.17	     6.403
  16.360         45.00	     7.348
  16.380         44.17	     7.280
  16.400         42.50	     7.141
  16.420         48.33	     7.616
  16.440         41.67	     7.071
  16.460         42.50	     7.141
  16.480         37.50	     6.708
  16.500         31.67	     6.164
  16.520         45.00	     7.348
  16.540         53.33	     8.000
  16.560         40.83	     7.000
  16.580         49.17	     7.681
  16.600         47.50	     7.550
  16.620         40.00	     6.928
  16.640         42.50	     7.141
  16.660         42.50	     7.141
  16.680         57.50	     8.307
  16.700         40.83	     7.000
  16.720         47.50	     7.550
  16.740         42.50	     7.141
  16.760         58.33	     8.367
  16.780         48.33	     7.616
  16.800         46.67	     7.483
  16.820         35.00	     6.481
  16.840         44.17	     7.280
  16.860         55.00	     8.124
  16.880         40.00	     6.928
  16.900         49.17	     7.681
  16.920         39.17	     6.856
  16.940         44.17	     7.280
  16.960         53.33	     8.000
  16.980         38.33	     6.782
  17.000         36.67	     6.633
  17.020         40.00	     6.928
  17.040         35.00	     6.481
  17.060         48.33	     7.616
  17.080         48.33	     7.616
  17.100         48.33	     7.616
  17.120         49.17	     7.681
  17.140         40.83	     7.000
  17.160         37.50	     6.708
  17.180         35.00	     6.481
  17.200         40.83	     7.000
  17.220         45.83	     7.416
  17.240         37.50	     6.708
  17.260         49.17	     7.681
  17.280         51.67	     7.874
  17.300         40.83	     7.000
  17.320         40.83	     7.000
  17.340         42.50	     7.141
  17.360         61.67	     8.602
  17.380         50.83	     7.810
  17.400         41.67	     7.071
  17.420         48.33	     7.616
  17.440         55.00	     8.124
  17.460         58.33	     8.367
  17.480         49.17	     7.681
  17.500         40.83	     7.000
  17.520         54.17	     8.062
  17.540         52.50	     7.937
  17.560         48.33	     7.616
  17.580         45.00	     7.348
  17.600         55.00	     8.124
  17.620         74.17	     9.434
  17.640         63.33	     8.718
  17.660         62.50	     8.660
  17.680         56.67	     8.246
  17.700         67.50	     9.000
  17.720         78.33	     9.695
  17.740         82.50	     9.950
  17.760         93.33	    10.583
  17.780        131.67	    12.570
  17.800        139.17	    12.923
  17.820        150.83	    13.454
  17.840        185.83	    14.933
  17.860        210.00	    15.875
  17.880        164.17	    14.036
  17.900        168.33	    14.213
  17.920        124.17	    12.207
  17.940        108.33	    11.402
  17.960         83.33	    10.000
  17.980         69.17	     9.110
  18.000         61.67	     8.602
  18.020         45.83	     7.416
  18.040         63.33	     8.718
  18.060         58.33	     8.367
  18.080         48.33	     7.616
  18.100         43.33	     7.211
  18.120         51.67	     7.874
  18.140         55.83	     8.185
  18.160         46.67	     7.483
  18.180         55.00	     8.124
  18.200         59.17	     8.426
  18.220         45.00	     7.348
  18.240         43.33	     7.211
  18.260         47.50	     7.550
  18.280         42.50	     7.141
  18.300         51.67	     7.874
  18.320         45.00	     7.348
  18.340         48.33	     7.616
  18.360         45.83	     7.416
  18.380         41.67	     7.071
  18.400         50.00	     7.746
  18.420         45.83	     7.416
  18.440         45.83	     7.416
  18.460         55.83	     8.185
  18.480         58.33	     8.367
  18.500         63.33	     8.718
  18.520         53.33	     8.000
  18.540         49.17	     7.681
  18.560         54.17	     8.062
  18.580         62.50	     8.660
  18.600         57.50	     8.307
  18.620         55.83	     8.185
  18.640         62.50	     8.660
  18.660         71.67	     9.274
  18.680         85.00	    10.100
  18.700         88.33	    10.296
  18.720         77.50	     9.644
  18.740         87.50	    10.247
  18.760         99.17	    10.909
  18.780         95.83	    10.724
  18.800        125.83	    12.288
  18.820        125.00	    12.247
  18.840        147.50	    13.304
  18.860        128.33	    12.410
  18.880        130.00	    12.490
  18.900        117.50	    11.874
  18.920         85.00	    10.100
  18.940         78.33	     9.695
  18.960         85.83	    10.149
  18.980         64.17	     8.775
  19.000         56.67	     8.246
  19.020         67.50	     9.000
  19.040         51.67	     7.874
  19.060         52.50	     7.937
  19.080         52.50	     7.937
  19.100         60.83	     8.544
  19.120         51.67	     7.874
  19.140         45.83	     7.416
  19.160         60.00	     8.485
  19.180         54.17	     8.062
  19.200         50.00	     7.746
  19.220         62.50	     8.660
  19.240         56.67	     8.246
  19.260         65.00	     8.832
  19.280         58.33	     8.367
  19.300         71.67	     9.274
  19.320         60.83	     8.544
  19.340         50.83	     7.810
  19.360         73.33	     9.381
  19.380         60.00	     8.485
  19.400         58.33	     8.367
  19.420         60.00	     8.485
  19.440         62.50	     8.660
  19.460         50.83	     7.810
  19.480         62.50	     8.660
  19.500         60.00	     8.485
  19.520         59.17	     8.426
  19.540         54.17	     8.062
  19.560         57.50	     8.307
  19.580         60.00	     8.485
  19.600         47.50	     7.550
  19.620         50.83	     7.810
  19.640         59.17	     8.426
  19.660         67.50	     9.000
  19.680         78.33	     9.695
  19.700        105.83	    11.269
  19.720        100.00	    10.954
  19.740        111.67	    11.576
  19.760        106.67	    11.314
  19.780        100.00	    10.954
  19.800         99.17	    10.909
  19.820        104.17	    11.180
  19.840        125.00	    12.247
  19.860        113.33	    11.662
  19.880        138.33	    12.884
  19.900        149.17	    13.379
  19.920        110.83	    11.533
  19.940        136.67	    12.806
  19.960        123.33	    12.166
  19.980        105.00	    11.225
  20.000         83.33	    10.000
  20.020         95.83	    10.724
  20.040         71.67	     9.274
  20.060         59.17	     8.426
  20.080         65.00	     8.832
  20.100         52.50	     7.937
  20.120         70.00	     9.165
  20.140         62.50	     8.660
  20.160         65.00	     8.832
  20.180         65.00	     8.832
  20.200         62.50	     8.660
  20.220         54.17	     8.062
  20.240         75.83	     9.539
  20.260         61.67	     8.602
  20.280         55.00	     8.124
  20.300         50.00	     7.746
  20.320         56.67	     8.246
  20.340         42.50	     7.141
  20.360         43.33	     7.211
  20.380         48.33	     7.616
  20.400         38.33	     6.782
  20.420         44.17	     7.280
  20.440         65.83	     8.888
  20.460         43.33	     7.211
  20.480         57.50	     8.307
  20.500         54.17	     8.062
  20.520         47.50	     7.550
  20.540         51.67	     7.874
  20.560         53.33	     8.000
  20.580         49.17	     7.681
  20.600         54.17	     8.062
  20.620         69.17	     9.110
  20.640         60.83	     8.544
  20.660         59.17	     8.426
  20.680         92.50	    10.536
  20.700         54.17	     8.062
  20.720         73.33	     9.381
  20.740         80.00	     9.798
  20.760         94.17	    10.630
  20.780        125.00	    12.247
  20.800        135.00	    12.728
  20.820        170.00	    14.283
  20.840        238.33	    16.912
  20.860        314.17	    19.416
  20.880        368.33	    21.024
  20.900        322.50	    19.672
  20.920        332.50	    19.975
  20.940        318.33	    19.545
  20.960        236.67	    16.852
  20.980        176.67	    14.560
  21.000        135.83	    12.767
  21.020        116.67	    11.832
  21.040        113.33	    11.662
  21.060         92.50	    10.536
  21.080         89.17	    10.344
  21.100         73.33	     9.381
  21.120         50.83	     7.810
  21.140         62.50	     8.660
  21.160         53.33	     8.000
  21.180         50.83	     7.810
  21.200         51.67	     7.874
  21.220         55.00	     8.124
  21.240         64.17	     8.775
  21.260         46.67	     7.483
  21.280         47.50	     7.550
  21.300         54.17	     8.062
  21.320         44.17	     7.280
  21.340         37.50	     6.708
  21.360         47.50	     7.550
  21.380         55.83	     8.185
  21.400         45.83	     7.416
  21.420         50.00	     7.746
  21.440         51.67	     7.874
  21.460         45.83	     7.416
  21.480         54.17	     8.062
  21.500         30.83	     6.083
  21.520         58.33	     8.367
  21.540         50.00	     7.746
  21.560         50.00	     7.746
  21.580         56.67	     8.246
  21.600         65.00	     8.832
  21.620         62.50	     8.660
  21.640         54.17	     8.062
  21.660         70.83	     9.220
  21.680         56.67	     8.246
  21.700         51.67	     7.874
  21.720         64.17	     8.775
  21.740         45.00	     7.348
  21.760         38.33	     6.782
  21.780         48.33	     7.616
  21.800         57.50	     8.307
  21.820         50.83	     7.810
  21.840         55.00	     8.124
  21.860         58.33	     8.367
  21.880         53.33	     8.000
  21.900         69.17	     9.110
  21.920         72.50	     9.327
  21.940         90.83	    10.440
  21.960         99.17	    10.909
  21.980        111.67	    11.576
  22.000        138.33	    12.884
  22.020        157.50	    13.748
  22.040        208.33	    15.811
  22.060        192.50	    15.199
  22.080        192.50	    15.199
  22.100        194.17	    15.264
  22.120        186.67	    14.967
  22.140        153.33	    13.565
  22.160        117.50	    11.874
  22.180         93.33	    10.583
  22.200         80.83	     9.849
  22.220         67.50	     9.000
  22.240         52.50	     7.937
  22.260         52.50	     7.937
  22.280         64.17	     8.775
  22.300         48.33	     7.616
  22.320         56.67	     8.246
  22.340         45.00	     7.348
  22.360         66.67	     8.944
  22.380         58.33	     8.367
  22.400         62.50	     8.660
  22.420         55.00	     8.124
  22.440         50.83	     7.810
  22.460         54.17	     8.062
  22.480         65.83	     8.888
  22.500         54.17	     8.062
  22.520         61.67	     8.602
  22.540         54.17	     8.062
  22.560         70.83	     9.220
  22.580         69.17	     9.110
  22.600         53.33	     8.000
  22.620         47.50	     7.550
  22.640         54.17	     8.062
  22.660         70.00	     9.165
  22.680         52.50	     7.937
  22.700         53.33	     8.000
  22.720         56.67	     8.246
  22.740         38.33	     6.782
  22.760         56.67	     8.246
  22.780         60.83	     8.544
  22.800         63.33	     8.718
  22.820         54.17	     8.062
  22.840         67.50	     9.000
  22.860         94.17	    10.630
  22.880        105.00	    11.225
  22.900        111.67	    11.576
  22.920        115.00	    11.747
  22.940        110.00	    11.489
  22.960        125.83	    12.288
  22.980        120.83	    12.042
  23.000        124.17	    12.207
  23.020        110.00	    11.489
  23.040        130.00	    12.490
  23.060        125.83	    12.288
  23.080        129.17	    12.450
  23.100        118.33	    11.916
  23.120        105.83	    11.269
  23.140         84.17	    10.050
  23.160         80.00	     9.798
  23.180         71.67	     9.274
  23.200         75.83	     9.539
  23.220         67.50	     9.000
  23.240         59.17	     8.426
  23.260         55.83	     8.185
  23.280         34.17	     6.403
  23.300         45.83	     7.416
  23.320         47.50	     7.550
  23.340         50.00	     7.746
  23.360         41.67	     7.071
  23.380         55.00	     8.124
  23.400         51.67	     7.874
  23.420         54.17	     8.062
  23.440         53.33	     8.000
  23.460         68.33	     9.055
  23.480         74.17	     9.434
  23.500         80.83	     9.849
  23.520        100.83	    11.000
  23.540        121.67	    12.083
  23.560        164.17	    14.036
  23.580        161.67	    13.928
  23.600        180.00	    14.697
  23.620        160.00	    13.856
  23.640        165.00	    14.071
  23.660        145.83	    13.229
  23.680        125.00	    12.247
  23.700         97.50	    10.817
  23.720        115.83	    11.790
  23.740        105.00	    11.225
  23.760         99.17	    10.909
  23.780         95.00	    10.677
  23.800         99.17	    10.909
  23.820        110.83	    11.533
  23.840        117.50	    11.874
  23.860        120.83	    12.042
  23.880        130.83	    12.530
  23.900        120.00	    12.000
  23.920        102.50	    11.091
  23.940        100.83	    11.000
  23.960        106.67	    11.314
  23.980         86.67	    10.198
  24.000        105.83	    11.269
  24.020         90.83	    10.440
  24.040        102.50	    11.091
  24.060         85.00	    10.100
  24.080         95.00	    10.677
  24.100        100.83	    11.000
  24.120         86.67	    10.198
  24.140         85.83	    10.149
  24.160         75.00	     9.487
  24.180        115.83	    11.790
  24.200        127.50	    12.369
  24.220        139.17	    12.923
  24.240        120.00	    12.000
  24.260        133.33	    12.649
  24.280        140.83	    13.000
  24.300        147.50	    13.304
  24.320        173.33	    14.422
  24.340        186.67	    14.967
  24.360        155.00	    13.638
  24.380        155.00	    13.638
  24.400        139.17	    12.923
  24.420        121.67	    12.083
  24.440        121.67	    12.083
  24.460         98.33	    10.863
  24.480         88.33	    10.296
  24.500         89.17	    10.344
  24.520         90.83	    10.440
  24.540         94.17	    10.630
  24.560        105.00	    11.225
  24.580        121.67	    12.083
  24.600        128.33	    12.410
  24.620        153.33	    13.565
  24.640        164.17	    14.036
  24.660        180.00	    14.697
  24.680        192.50	    15.199
  24.700        246.67	    17.205
  24.720        205.00	    15.684
  24.740        205.83	    15.716
  24.760        195.00	    15.297
  24.780        185.00	    14.900
  24.800        163.33	    14.000
  24.820        131.67	    12.570
  24.840        151.67	    13.491
  24.860        130.83	    12.530
  24.880        118.33	    11.916
  24.900        119.17	    11.958
  24.920         98.33	    10.863
  24.940        130.00	    12.490
  24.960        111.67	    11.576
  24.980        120.83	    12.042
  25.000        124.17	    12.207
  25.020        116.67	    11.832
  25.040        133.33	    12.649
  25.060        153.33	    13.565
  25.080        134.17	    12.689
  25.100        172.50	    14.387
  25.120        173.33	    14.422
  25.140        225.83	    16.462
  25.160        230.83	    16.643
  25.180        222.50	    16.340
  25.200        307.50	    19.209
  25.220        260.00	    17.664
  25.240        292.50	    18.735
  25.260        284.17	    18.466
  25.280        205.83	    15.716
  25.300        194.17	    15.264
  25.320        150.00	    13.416
  25.340        156.67	    13.711
  25.360        116.67	    11.832
  25.380        125.00	    12.247
  25.400        121.67	    12.083
  25.420        136.67	    12.806
  25.440        160.00	    13.856
  25.460        162.50	    13.964
  25.480        179.17	    14.663
  25.500        190.83	    15.133
  25.520        220.83	    16.279
  25.540        226.67	    16.492
  25.560        209.17	    15.843
  25.580        212.50	    15.969
  25.600        229.17	    16.583
  25.620        190.00	    15.100
  25.640        200.00	    15.492
  25.660        159.17	    13.820
  25.680        147.50	    13.304
  25.700        117.50	    11.874
  25.720        130.83	    12.530
  25.740        102.50	    11.091
  25.760         95.00	    10.677
  25.780        104.17	    11.180
  25.800        101.67	    11.045
  25.820         75.00	     9.487
  25.840         74.17	     9.434
  25.860         80.83	     9.849
  25.880         78.33	     9.695
  25.900         68.33	     9.055
  25.920         85.00	    10.100
  25.940         63.33	     8.718
  25.960         72.50	     9.327
  25.980         70.83	     9.220
  26.000         55.83	     8.185
  26.020         67.50	     9.000
  26.040         73.33	     9.381
  26.060         75.83	     9.539
  26.080         63.33	     8.718
  26.100         76.67	     9.592
  26.120         75.83	     9.539
  26.140         77.50	     9.644
  26.160         86.67	    10.198
  26.180         89.17	    10.344
  26.200         81.67	     9.899
  26.220         87.50	    10.247
  26.240         85.83	    10.149
  26.260         86.67	    10.198
  26.280        100.83	    11.000
  26.300        110.83	    11.533
  26.320        147.50	    13.304
  26.340        160.00	    13.856
  26.360        124.17	    12.207
  26.380        172.50	    14.387
  26.400        160.00	    13.856
  26.420        181.67	    14.765
  26.440        190.00	    15.100
  26.460        233.33	    16.733
  26.480        215.00	    16.062
  26.500        254.17	    17.464
  26.520        259.17	    17.635
  26.540        319.17	    19.570
  26.560        338.33	    20.149
  26.580        471.67	    23.791
  26.600        690.00	    28.775
  26.620        840.00	    31.749
  26.640       1121.67	    36.688
  26.660       1364.17	    40.460
  26.680       1711.67	    45.321
  26.700       1875.83	    47.445
  26.720       1636.67	    44.317
  26.740       1355.00	    40.324
  26.760       1114.17	    36.565
  26.780        964.17	    34.015
  26.800        732.50	    29.648
  26.820        577.50	    26.325
  26.840        496.67	    24.413
  26.860        515.83	    24.880
  26.880        526.67	    25.140
  26.900        567.50	    26.096
  26.920        580.00	    26.382
  26.940        526.67	    25.140
  26.960        500.83	    24.515
  26.980        430.83	    22.738
  27.000        343.33	    20.298
  27.020        282.50	    18.412
  27.040        238.33	    16.912
  27.060        192.50	    15.199
  27.080        147.50	    13.304
  27.100        159.17	    13.820
  27.120        145.83	    13.229
  27.140        118.33	    11.916
  27.160        125.83	    12.288
  27.180        124.17	    12.207
  27.200        113.33	    11.662
  27.220         92.50	    10.536
  27.240        102.50	    11.091
  27.260        111.67	    11.576
  27.280         98.33	    10.863
  27.300         81.67	     9.899
  27.320         95.83	    10.724
  27.340        100.00	    10.954
  27.360         86.67	    10.198
  27.380         84.17	    10.050
  27.400         90.00	    10.392
  27.420        100.83	    11.000
  27.440         96.67	    10.770
  27.460        130.83	    12.530
  27.480        116.67	    11.832
  27.500        130.00	    12.490
  27.520        154.17	    13.601
  27.540        173.33	    14.422
  27.560        201.67	    15.556
  27.580        183.33	    14.832
  27.600        168.33	    14.213
  27.620        160.00	    13.856
  27.640        180.00	    14.697
  27.660        154.17	    13.601
  27.680        156.67	    13.711
  27.700        165.83	    14.107
  27.720        213.33	    16.000
  27.740        210.83	    15.906
  27.760        292.50	    18.735
  27.780        406.67	    22.091
  27.800        402.50	    21.977
  27.820        390.00	    21.633
  27.840        405.83	    22.068
  27.860        448.33	    23.195
  27.880        415.83	    22.338
  27.900        438.33	    22.935
  27.920        460.83	    23.516
  27.940        430.00	    22.716
  27.960        491.67	    24.290
  27.980        537.50	    25.397
  28.000        528.33	    25.179
  28.020        433.33	    22.804
  28.040        411.67	    22.226
  28.060        356.67	    20.688
  28.080        282.50	    18.412
  28.100        241.67	    17.029
  28.120        190.83	    15.133
  28.140        187.50	    15.000
  28.160        185.83	    14.933
  28.180        166.67	    14.142
  28.200        155.83	    13.675
  28.220        160.83	    13.892
  28.240        152.50	    13.528
  28.260        134.17	    12.689
  28.280        120.00	    12.000
  28.300        137.50	    12.845
  28.320        129.17	    12.450
  28.340        145.83	    13.229
  28.360        146.67	    13.266
  28.380        132.50	    12.610
  28.400        125.83	    12.288
  28.420        101.67	    11.045
  28.440        109.17	    11.446
  28.460        100.83	    11.000
  28.480         92.50	    10.536
  28.500         92.50	    10.536
  28.520        100.00	    10.954
  28.540         85.83	    10.149
  28.560         85.83	    10.149
  28.580        109.17	    11.446
  28.600        112.50	    11.619
  28.620        129.17	    12.450
  28.640        137.50	    12.845
  28.660        135.00	    12.728
  28.680        131.67	    12.570
  28.700        136.67	    12.806
  28.720        150.83	    13.454
  28.740        124.17	    12.207
  28.760        125.00	    12.247
  28.780        105.83	    11.269
  28.800        115.00	    11.747
  28.820        125.00	    12.247
  28.840        118.33	    11.916
  28.860         94.17	    10.630
  28.880         94.17	    10.630
  28.900         78.33	     9.695
  28.920         70.83	     9.220
  28.940         68.33	     9.055
  28.960         58.33	     8.367
  28.980         50.83	     7.810
  29.000         51.67	     7.874
  29.020         44.17	     7.280
  29.040         52.50	     7.937
  29.060         55.00	     8.124
  29.080         48.33	     7.616
  29.100         60.00	     8.485
  29.120         41.67	     7.071
  29.140         45.00	     7.348
  29.160         57.50	     8.307
  29.180         60.00	     8.485
  29.200         53.33	     8.000
  29.220         57.50	     8.307
  29.240         52.50	     7.937
  29.260         46.67	     7.483
  29.280         47.50	     7.550
  29.300         53.33	     8.000
  29.320         52.50	     7.937
  29.340         55.00	     8.124
  29.360         51.67	     7.874
  29.380         40.00	     6.928
  29.400         48.33	     7.616
  29.420         43.33	     7.211
  29.440         53.33	     8.000
  29.460         39.17	     6.856
  29.480         50.00	     7.746
  29.500         55.00	     8.124
  29.520         60.83	     8.544
  29.540         41.67	     7.071
  29.560         46.67	     7.483
  29.580         48.33	     7.616
  29.600         64.17	     8.775
  29.620         56.67	     8.246
  29.640         37.50	     6.708
  29.660         53.33	     8.000
  29.680         54.17	     8.062
  29.700         57.50	     8.307
  29.720         62.50	     8.660
  29.740         79.17	     9.747
  29.760         64.17	     8.775
  29.780         86.67	    10.198
  29.800         97.50	    10.817
  29.820         90.00	    10.392
  29.840        130.83	    12.530
  29.860        169.17	    14.248
  29.880        194.17	    15.264
  29.900        195.83	    15.330
  29.920        210.00	    15.875
  29.940        220.00	    16.248
  29.960        231.67	    16.673
  29.980        198.33	    15.427
  30.000        203.33	    15.620
  30.020        167.50	    14.177
  30.040        152.50	    13.528
  30.060        136.67	    12.806
  30.080        122.50	    12.124
  30.100        128.33	    12.410
  30.120        111.67	    11.576
  30.140         95.00	    10.677
  30.160        119.17	    11.958
  30.180        110.83	    11.533
  30.200        102.50	    11.091
  30.220         91.67	    10.488
  30.240         98.33	    10.863
  30.260        111.67	    11.576
  30.280        103.33	    11.136
  30.300        103.33	    11.136
  30.320        102.50	    11.091
  30.340        120.83	    12.042
  30.360        124.17	    12.207
  30.380        108.33	    11.402
  30.400        112.50	    11.619
  30.420        118.33	    11.916
  30.440        113.33	    11.662
  30.460        118.33	    11.916
  30.480        127.50	    12.369
  30.500        120.83	    12.042
  30.520        136.67	    12.806
  30.540        138.33	    12.884
  30.560        130.83	    12.530
  30.580        138.33	    12.884
  30.600        134.17	    12.689
  30.620         86.67	    10.198
  30.640         99.17	    10.909
  30.660         80.83	     9.849
  30.680         93.33	    10.583
  30.700         83.33	    10.000
  30.720         80.00	     9.798
  30.740         93.33	    10.583
  30.760         92.50	    10.536
  30.780         80.83	     9.849
  30.800         82.50	     9.950
  30.820         87.50	    10.247
  30.840         84.17	    10.050
  30.860        100.83	    11.000
  30.880         77.50	     9.644
  30.900         80.00	     9.798
  30.920         83.33	    10.000
  30.940        100.00	    10.954
  30.960         99.17	    10.909
  30.980         89.17	    10.344
  31.000         64.17	     8.775
  31.020         70.00	     9.165
  31.040         76.67	     9.592
  31.060         83.33	    10.000
  31.080         87.50	    10.247
  31.100         97.50	    10.817
  31.120         95.00	    10.677
  31.140        120.83	    12.042
  31.160        109.17	    11.446
  31.180        110.00	    11.489
  31.200        124.17	    12.207
  31.220        152.50	    13.528
  31.240        141.67	    13.038
  31.260        178.33	    14.629
  31.280        174.17	    14.457
  31.300        217.50	    16.155
  31.320        206.67	    15.748
  31.340        206.67	    15.748
  31.360        202.50	    15.588
  31.380        152.50	    13.528
  31.400        143.33	    13.115
  31.420        130.83	    12.530
  31.440        125.00	    12.247
  31.460        100.83	    11.000
  31.480        100.83	    11.000
  31.500         90.00	    10.392
  31.520         73.33	     9.381
  31.540         88.33	    10.296
  31.560         93.33	    10.583
  31.580         92.50	    10.536
  31.600         80.00	     9.798
  31.620         84.17	    10.050
  31.640         84.17	    10.050
  31.660         70.00	     9.165
  31.680         87.50	    10.247
  31.700         77.50	     9.644
  31.720         88.33	    10.296
  31.740         79.17	     9.747
  31.760         66.67	     8.944
  31.780         69.17	     9.110
  31.800         60.83	     8.544
  31.820         42.50	     7.141
  31.840         59.17	     8.426
  31.860         62.50	     8.660
  31.880         46.67	     7.483
  31.900         65.83	     8.888
  31.920         60.83	     8.544
  31.940         69.17	     9.110
  31.960         75.00	     9.487
  31.980         65.00	     8.832
  32.000         71.67	     9.274
  32.020         93.33	    10.583
  32.040         85.00	    10.100
  32.060        105.00	    11.225
  32.080        129.17	    12.450
  32.100        125.83	    12.288
  32.120        135.83	    12.767
  32.140        122.50	    12.124
  32.160        139.17	    12.923
  32.180        121.67	    12.083
  32.200        110.83	    11.533
  32.220        107.50	    11.358
  32.240         83.33	    10.000
  32.260         93.33	    10.583
  32.280         84.17	    10.050
  32.300         78.33	     9.695
  32.320         75.83	     9.539
  32.340         61.67	     8.602
  32.360         61.67	     8.602
  32.380         41.67	     7.071
  32.400         60.83	     8.544
  32.420         52.50	     7.937
  32.440         52.50	     7.937
  32.460         46.67	     7.483
  32.480         35.83	     6.557
  32.500         44.17	     7.280
  32.520         40.00	     6.928
  32.540         45.83	     7.416
  32.560         45.83	     7.416
  32.580         45.00	     7.348
  32.600         43.33	     7.211
  32.620         40.00	     6.928
  32.640         40.83	     7.000
  32.660         36.67	     6.633
  32.680         50.00	     7.746
  32.700         35.83	     6.557
  32.720         45.83	     7.416
  32.740         31.67	     6.164
  32.760         42.50	     7.141
  32.780         49.17	     7.681
  32.800         40.83	     7.000
  32.820         44.17	     7.280
  32.840         41.67	     7.071
  32.860         48.33	     7.616
  32.880         38.33	     6.782
  32.900         45.83	     7.416
  32.920         41.67	     7.071
  32.940         36.67	     6.633
  32.960         45.00	     7.348
  32.980         57.50	     8.307
  33.000         45.83	     7.416
  33.020         60.83	     8.544
  33.040         60.83	     8.544
  33.060         75.83	     9.539
  33.080         92.50	    10.536
  33.100        100.83	    11.000
  33.120        110.83	    11.533
  33.140         91.67	    10.488
  33.160         85.83	    10.149
  33.180         88.33	    10.296
  33.200         81.67	     9.899
  33.220         50.00	     7.746
  33.240         62.50	     8.660
  33.260         42.50	     7.141
  33.280         50.83	     7.810
  33.300         64.17	     8.775
  33.320         46.67	     7.483
  33.340         49.17	     7.681
  33.360         36.67	     6.633
  33.380         47.50	     7.550
  33.400         60.00	     8.485
  33.420         49.17	     7.681
  33.440         37.50	     6.708
  33.460         56.67	     8.246
  33.480         50.83	     7.810
  33.500         56.67	     8.246
  33.520         54.17	     8.062
  33.540         52.50	     7.937
  33.560         51.67	     7.874
  33.580         56.67	     8.246
  33.600         60.83	     8.544
  33.620         48.33	     7.616
  33.640         48.33	     7.616
  33.660         52.50	     7.937
  33.680         47.50	     7.550
  33.700         56.67	     8.246
  33.720         45.83	     7.416
  33.740         47.50	     7.550
  33.760         41.67	     7.071
  33.780         64.17	     8.775
  33.800         54.17	     8.062
  33.820         56.67	     8.246
  33.840         41.67	     7.071
  33.860         41.67	     7.071
  33.880         64.17	     8.775
  33.900         60.00	     8.485
  33.920         51.67	     7.874
  33.940         55.83	     8.185
  33.960         78.33	     9.695
  33.980         67.50	     9.000
  34.000         70.00	     9.165
  34.020         87.50	    10.247
  34.040         73.33	     9.381
  34.060         61.67	     8.602
  34.080         75.00	     9.487
  34.100         86.67	    10.198
  34.120         81.67	     9.899
  34.140         61.67	     8.602
  34.160         65.83	     8.888
  34.180         60.83	     8.544
  34.200         58.33	     8.367
  34.220         90.83	    10.440
  34.240         65.00	     8.832
  34.260         91.67	    10.488
  34.280         66.67	     8.944
  34.300         70.83	     9.220
  34.320         48.33	     7.616
  34.340         55.83	     8.185
  34.360         70.00	     9.165
  34.380         71.67	     9.274
  34.400         63.33	     8.718
  34.420         95.83	    10.724
  34.440         86.67	    10.198
  34.460        105.83	    11.269
  34.480        109.17	    11.446
  34.500        102.50	    11.091
  34.520        128.33	    12.410
  34.540        132.50	    12.610
  34.560        127.50	    12.369
  34.580        129.17	    12.450
  34.600        154.17	    13.601
  34.620        173.33	    14.422
  34.640        130.00	    12.490
  34.660        118.33	    11.916
  34.680        118.33	    11.916
  34.700        108.33	    11.402
  34.720        115.83	    11.790
  34.740        108.33	    11.402
  34.760         99.17	    10.909
  34.780        116.67	    11.832
  34.800        100.00	    10.954
  34.820        104.17	    11.180
  34.840        105.00	    11.225
  34.860        127.50	    12.369
  34.880        120.00	    12.000
  34.900        152.50	    13.528
  34.920        153.33	    13.565
  34.940        180.00	    14.697
  34.960        193.33	    15.232
  34.980        196.67	    15.362
  35.000        176.67	    14.560
  35.020        215.83	    16.093
  35.040        214.17	    16.031
  35.060        195.83	    15.330
  35.080        210.83	    15.906
  35.100        189.17	    15.067
  35.120        190.83	    15.133
  35.140        176.67	    14.560
  35.160        171.67	    14.353
  35.180        151.67	    13.491
  35.200        125.83	    12.288
  35.220        142.50	    13.077
  35.240        130.00	    12.490
  35.260        132.50	    12.610
  35.280        117.50	    11.874
  35.300        118.33	    11.916
  35.320         99.17	    10.909
  35.340         95.83	    10.724
  35.360        110.83	    11.533
  35.380        106.67	    11.314
  35.400         84.17	    10.050
  35.420         85.83	    10.149
  35.440         84.17	    10.050
  35.460         98.33	    10.863
  35.480         97.50	    10.817
  35.500         96.67	    10.770
  35.520         96.67	    10.770
  35.540        121.67	    12.083
  35.560        141.67	    13.038
  35.580        125.00	    12.247
  35.600        117.50	    11.874
  35.620        116.67	    11.832
  35.640        106.67	    11.314
  35.660        109.17	    11.446
  35.680         85.83	    10.149
  35.700         81.67	     9.899
  35.720         78.33	     9.695
  35.740         70.83	     9.220
  35.760         65.83	     8.888
  35.780         69.17	     9.110
  35.800         62.50	     8.660
  35.820         70.83	     9.220
  35.840         79.17	     9.747
  35.860         65.83	     8.888
  35.880         61.67	     8.602
  35.900         52.50	     7.937
  35.920         64.17	     8.775
  35.940         76.67	     9.592
  35.960         61.67	     8.602
  35.980         67.50	     9.000
  36.000         73.33	     9.381
  36.020         75.83	     9.539
  36.040         74.17	     9.434
  36.060         95.83	    10.724
  36.080         85.83	    10.149
  36.100         71.67	     9.274
  36.120         83.33	    10.000
  36.140         86.67	    10.198
  36.160         80.00	     9.798
  36.180         85.00	    10.100
  36.200         75.00	     9.487
  36.220         77.50	     9.644
  36.240         79.17	     9.747
  36.260         73.33	     9.381
  36.280         78.33	     9.695
  36.300         69.17	     9.110
  36.320         66.67	     8.944
  36.340         50.83	     7.810
  36.360         64.17	     8.775
  36.380         58.33	     8.367
  36.400         63.33	     8.718
  36.420         77.50	     9.644
  36.440         65.83	     8.888
  36.460         58.33	     8.367
  36.480         82.50	     9.950
  36.500        100.00	    10.954
  36.520        116.67	    11.832
  36.540        130.83	    12.530
  36.560        164.17	    14.036
  36.580        185.00	    14.900
  36.600        205.00	    15.684
  36.620        195.83	    15.330
  36.640        184.17	    14.866
  36.660        135.83	    12.767
  36.680        160.83	    13.892
  36.700        171.67	    14.353
  36.720        182.50	    14.799
  36.740        146.67	    13.266
  36.760        132.50	    12.610
  36.780        153.33	    13.565
  36.800        130.83	    12.530
  36.820        122.50	    12.124
  36.840        129.17	    12.450
  36.860         99.17	    10.909
  36.880         86.67	    10.198
  36.900         84.17	    10.050
  36.920         85.83	    10.149
  36.940         77.50	     9.644
  36.960         73.33	     9.381
  36.980         73.33	     9.381
  37.000         70.00	     9.165
  37.020         60.00	     8.485
  37.040         68.33	     9.055
  37.060         57.50	     8.307
  37.080         57.50	     8.307
  37.100         55.83	     8.185
  37.120         55.83	     8.185
  37.140         60.83	     8.544
  37.160         61.67	     8.602
  37.180         48.33	     7.616
  37.200         59.17	     8.426
  37.220         60.83	     8.544
  37.240         59.17	     8.426
  37.260         51.67	     7.874
  37.280         53.33	     8.000
  37.300         63.33	     8.718
  37.320         66.67	     8.944
  37.340         76.67	     9.592
  37.360         71.67	     9.274
  37.380         67.50	     9.000
  37.400         70.83	     9.220
  37.420         65.83	     8.888
  37.440         93.33	    10.583
  37.460        115.83	    11.790
  37.480         95.83	    10.724
  37.500         79.17	     9.747
  37.520        102.50	    11.091
  37.540         99.17	    10.909
  37.560         98.33	    10.863
  37.580         96.67	    10.770
  37.600        105.00	    11.225
  37.620        117.50	    11.874
  37.640        123.33	    12.166
  37.660        133.33	    12.649
  37.680        120.00	    12.000
  37.700        132.50	    12.610
  37.720        137.50	    12.845
  37.740        138.33	    12.884
  37.760        126.67	    12.329
  37.780        114.17	    11.705
  37.800        111.67	    11.576
  37.820        107.50	    11.358
  37.840        105.83	    11.269
  37.860        110.83	    11.533
  37.880         84.17	    10.050
  37.900         87.50	    10.247
  37.920         75.00	     9.487
  37.940         59.17	     8.426
  37.960         56.67	     8.246
  37.980         59.17	     8.426
  38.000         65.00	     8.832
  38.020         68.33	     9.055
  38.040         52.50	     7.937
  38.060         56.67	     8.246
  38.080         66.67	     8.944
  38.100         74.17	     9.434
  38.120         65.83	     8.888
  38.140         48.33	     7.616
  38.160         45.00	     7.348
  38.180         49.17	     7.681
  38.200         55.00	     8.124
  38.220         42.50	     7.141
  38.240         45.83	     7.416
  38.260         36.67	     6.633
  38.280         31.67	     6.164
  38.300         35.83	     6.557
  38.320         34.17	     6.403
  38.340         32.50	     6.245
  38.360         34.17	     6.403
  38.380         35.83	     6.557
  38.400         38.33	     6.782
  38.420         34.17	     6.403
  38.440         33.33	     6.325
  38.460         46.67	     7.483
  38.480         50.83	     7.810
  38.500         39.17	     6.856
  38.520         53.33	     8.000
  38.540         54.17	     8.062
  38.560         58.33	     8.367
  38.580         49.17	     7.681
  38.600         50.00	     7.746
  38.620         49.17	     7.681
  38.640         56.67	     8.246
  38.660         53.33	     8.000
  38.680         52.50	     7.937
  38.700         34.17	     6.403
  38.720         58.33	     8.367
  38.740         45.00	     7.348
  38.760         40.83	     7.000
  38.780         44.17	     7.280
  38.800         53.33	     8.000
  38.820         58.33	     8.367
  38.840         68.33	     9.055
  38.860         52.50	     7.937
  38.880         54.17	     8.062
  38.900         44.17	     7.280
  38.920         55.00	     8.124
  38.940         49.17	     7.681
  38.960         52.50	     7.937
  38.980         47.50	     7.550
  39.000         60.83	     8.544
  39.020         25.00	     5.477
  39.040         46.67	     7.483
  39.060         43.33	     7.211
  39.080         45.00	     7.348
  39.100         45.00	     7.348
  39.120         48.33	     7.616
  39.140         46.67	     7.483
  39.160         41.67	     7.071
  39.180         44.17	     7.280
  39.200         56.67	     8.246
  39.220         50.83	     7.810
  39.240         40.83	     7.000
  39.260         37.50	     6.708
  39.280         62.50	     8.660
  39.300         48.33	     7.616
  39.320         58.33	     8.367
  39.340         45.00	     7.348
  39.360         51.67	     7.874
  39.380         55.00	     8.124
  39.400         50.00	     7.746
  39.420         60.00	     8.485
  39.440         48.33	     7.616
  39.460         77.50	     9.644
  39.480         95.83	    10.724
  39.500        106.67	    11.314
  39.520        130.83	    12.530
  39.540        152.50	    13.528
  39.560         99.17	    10.909
  39.580        101.67	    11.045
  39.600        100.00	    10.954
  39.620         96.67	    10.770
  39.640        107.50	    11.358
  39.660         83.33	    10.000
  39.680         75.83	     9.539
  39.700         57.50	     8.307
  39.720         54.17	     8.062
  39.740         62.50	     8.660
  39.760         65.83	     8.888
  39.780         74.17	     9.434
  39.800         46.67	     7.483
  39.820         63.33	     8.718
  39.840         60.83	     8.544
  39.860         61.67	     8.602
  39.880         64.17	     8.775
  39.900         57.50	     8.307
  39.920         55.00	     8.124
  39.940         50.83	     7.810
  39.960         64.17	     8.775
  39.980         58.33	     8.367
  40.000         63.33	     8.718
  40.020         61.67	     8.602
  40.040         56.67	     8.246
  40.060         58.33	     8.367
  40.080         52.50	     7.937
  40.100         51.67	     7.874
  40.120         48.33	     7.616
  40.140         57.50	     8.307
  40.160         55.00	     8.124
  40.180         51.67	     7.874
  40.200         45.00	     7.348
  40.220         47.50	     7.550
  40.240         55.83	     8.185
  40.260         50.00	     7.746
  40.280         65.83	     8.888
  40.300         81.67	     9.899
  40.320         79.17	     9.747
  40.340         89.17	    10.344
  40.360        100.00	    10.954
  40.380         76.67	     9.592
  40.400         90.00	    10.392
  40.420         70.00	     9.165
  40.440         75.00	     9.487
  40.460         48.33	     7.616
  40.480         68.33	     9.055
  40.500         66.67	     8.944
  40.520         44.17	     7.280
  40.540         55.83	     8.185
  40.560         43.33	     7.211
  40.580         35.83	     6.557
  40.600         39.17	     6.856
  40.620         44.17	     7.280
  40.640         54.17	     8.062
  40.660         38.33	     6.782
  40.680         44.17	     7.280
  40.700         41.67	     7.071
  40.720         50.83	     7.810
  40.740         43.33	     7.211
  40.760         46.67	     7.483
  40.780         41.67	     7.071
  40.800         47.50	     7.550
  40.820         46.67	     7.483
  40.840         45.83	     7.416
  40.860         55.00	     8.124
  40.880         54.17	     8.062
  40.900         46.67	     7.483
  40.920         52.50	     7.937
  40.940         54.17	     8.062
  40.960         62.50	     8.660
  40.980         55.83	     8.185
  41.000         61.67	     8.602
  41.020         63.33	     8.718
  41.040         48.33	     7.616
  41.060         46.67	     7.483
  41.080         48.33	     7.616
  41.100         40.00	     6.928
  41.120         42.50	     7.141
  41.140         40.00	     6.928
  41.160         42.50	     7.141
  41.180         51.67	     7.874
  41.200         40.83	     7.000
  41.220         40.00	     6.928
  41.240         49.17	     7.681
  41.260         61.67	     8.602
  41.280         65.83	     8.888
  41.300         51.67	     7.874
  41.320         56.67	     8.246
  41.340         71.67	     9.274
  41.360         55.83	     8.185
  41.380         75.83	     9.539
  41.400         56.67	     8.246
  41.420         58.33	     8.367
  41.440         44.17	     7.280
  41.460         49.17	     7.681
  41.480         50.00	     7.746
  41.500         54.17	     8.062
  41.520         34.17	     6.403
  41.540         46.67	     7.483
  41.560         45.00	     7.348
  41.580         45.83	     7.416
  41.600         59.17	     8.426
  41.620         66.67	     8.944
  41.640         50.00	     7.746
  41.660         61.67	     8.602
  41.680         55.00	     8.124
  41.700         73.33	     9.381
  41.720         61.67	     8.602
  41.740         70.00	     9.165
  41.760         84.17	    10.050
  41.780         80.83	     9.849
  41.800         62.50	     8.660
  41.820         72.50	     9.327
  41.840         73.33	     9.381
  41.860         81.67	     9.899
  41.880         84.17	    10.050
  41.900         79.17	     9.747
  41.920         84.17	    10.050
  41.940         66.67	     8.944
  41.960         65.00	     8.832
  41.980         71.67	     9.274
  42.000         63.33	     8.718
  42.020         69.17	     9.110
  42.040         68.33	     9.055
  42.060         80.83	     9.849
  42.080         68.33	     9.055
  42.100         77.50	     9.644
  42.120         76.67	     9.592
  42.140         75.00	     9.487
  42.160         79.17	     9.747
  42.180         75.83	     9.539
  42.200         66.67	     8.944
  42.220         45.00	     7.348
  42.240         55.83	     8.185
  42.260         66.67	     8.944
  42.280         68.33	     9.055
  42.300         75.00	     9.487
  42.320         80.00	     9.798
  42.340        104.17	    11.180
  42.360         94.17	    10.630
  42.380        116.67	    11.832
  42.400        125.83	    12.288
  42.420        107.50	    11.358
  42.440        151.67	    13.491
  42.460        140.83	    13.000
  42.480        196.67	    15.362
  42.500        210.83	    15.906
  42.520        215.00	    16.062
  42.540        175.00	    14.491
  42.560        133.33	    12.649
  42.580        149.17	    13.379
  42.600        133.33	    12.649
  42.620        100.00	    10.954
  42.640         95.00	    10.677
  42.660         95.00	    10.677
  42.680         65.83	     8.888
  42.700         59.17	     8.426
  42.720         50.00	     7.746
  42.740         61.67	     8.602
  42.760         50.00	     7.746
  42.780         41.67	     7.071
  42.800         42.50	     7.141
  42.820         54.17	     8.062
  42.840         62.50	     8.660
  42.860         55.83	     8.185
  42.880         63.33	     8.718
  42.900         70.83	     9.220
  42.920         46.67	     7.483
  42.940         53.33	     8.000
  42.960         42.50	     7.141
  42.980         48.33	     7.616
  43.000         55.00	     8.124
  43.020         34.17	     6.403
  43.040         35.83	     6.557
  43.060         43.33	     7.211
  43.080         51.67	     7.874
  43.100         36.67	     6.633
  43.120         36.67	     6.633
  43.140         42.50	     7.141
  43.160         41.67	     7.071
  43.180         30.83	     6.083
  43.200         48.33	     7.616
  43.220         33.33	     6.325
  43.240         26.67	     5.657
  43.260         31.67	     6.164
  43.280         47.50	     7.550
  43.300         29.17	     5.916
  43.320         41.67	     7.071
  43.340         26.67	     5.657
  43.360         18.33	     4.690
  43.380         20.83	     5.000
  43.400         32.50	     6.245
  43.420         35.83	     6.557
  43.440         35.00	     6.481
  43.460         37.50	     6.708
  43.480         40.00	     6.928
  43.500         41.67	     7.071
  43.520         45.00	     7.348
  43.540         35.83	     6.557
  43.560         40.83	     7.000
  43.580         55.00	     8.124
  43.600         53.33	     8.000
  43.620         40.83	     7.000
  43.640         40.00	     6.928
  43.660         52.50	     7.937
  43.680         45.00	     7.348
  43.700         46.67	     7.483
  43.720         49.17	     7.681
  43.740         43.33	     7.211
  43.760         40.83	     7.000
  43.780         46.67	     7.483
  43.800         34.17	     6.403
  43.820         45.00	     7.348
  43.840         49.17	     7.681
  43.860         52.50	     7.937
  43.880         53.33	     8.000
  43.900         30.00	     6.000
  43.920         38.33	     6.782
  43.940         36.67	     6.633
  43.960         47.50	     7.550
  43.980         38.33	     6.782
  44.000         41.67	     7.071
  44.020         50.00	     7.746
  44.040         51.67	     7.874
  44.060         48.33	     7.616
  44.080         40.83	     7.000
  44.100         40.83	     7.000
  44.120         55.83	     8.185
  44.140         36.67	     6.633
  44.160         48.33	     7.616
  44.180         50.83	     7.810
  44.200         46.67	     7.483
  44.220         51.67	     7.874
  44.240         43.33	     7.211
  44.260         52.50	     7.937
  44.280         65.00	     8.832
  44.300         41.67	     7.071
  44.320         52.50	     7.937
  44.340         38.33	     6.782
  44.360         38.33	     6.782
  44.380         51.67	     7.874
  44.400         41.67	     7.071
  44.420         49.17	     7.681
  44.440         45.00	     7.348
  44.460         38.33	     6.782
  44.480         41.67	     7.071
  44.500         38.33	     6.782
  44.520         41.67	     7.071
  44.540         51.67	     7.874
  44.560         50.00	     7.746
  44.580         58.33	     8.367
  44.600         40.83	     7.000
  44.620         35.83	     6.557
  44.640         35.83	     6.557
  44.660         42.50	     7.141
  44.680         45.00	     7.348
  44.700         50.00	     7.746
  44.720         47.50	     7.550
  44.740         38.33	     6.782
  44.760         45.83	     7.416
  44.780         45.83	     7.416
  44.800         59.17	     8.426
  44.820         40.00	     6.928
  44.840         44.17	     7.280
  44.860         43.33	     7.211
  44.880         60.00	     8.485
  44.900         58.33	     8.367
  44.920         60.00	     8.485
  44.940         59.17	     8.426
  44.960         70.83	     9.220
  44.980         62.50	     8.660
  45.000         70.83	     9.220
  45.020         60.83	     8.544
  45.040         76.67	     9.592
  45.060         90.00	    10.392
  45.080         85.00	    10.100
  45.100         80.00	     9.798
  45.120         83.33	    10.000
  45.140         80.00	     9.798
  45.160         78.33	     9.695
  45.180         99.17	    10.909
  45.200         98.33	    10.863
  45.220         99.17	    10.909
  45.240         89.17	    10.344
  45.260        120.00	    12.000
  45.280         89.17	    10.344
  45.300         88.33	    10.296
  45.320         94.17	    10.630
  45.340         97.50	    10.817
  45.360        104.17	    11.180
  45.380        127.50	    12.369
  45.400        102.50	    11.091
  45.420        109.17	    11.446
  45.440        116.67	    11.832
  45.460        135.83	    12.767
  45.480        145.83	    13.229
  45.500        160.83	    13.892
  45.520        169.17	    14.248
  45.540        201.67	    15.556
  45.560        233.33	    16.733
  45.580        217.50	    16.155
  45.600        195.00	    15.297
  45.620        224.17	    16.401
  45.640        216.67	    16.125
  45.660        215.83	    16.093
  45.680        204.17	    15.652
  45.700        193.33	    15.232
  45.720        150.83	    13.454
  45.740        148.33	    13.342
  45.760        149.17	    13.379
  45.780        123.33	    12.166
  45.800        146.67	    13.266
  45.820        136.67	    12.806
  45.840        133.33	    12.649
  45.860        120.00	    12.000
  45.880        101.67	    11.045
  45.900         95.83	    10.724
  45.920         73.33	     9.381
  45.940         94.17	    10.630
  45.960        115.83	    11.790
  45.980         95.00	    10.677
  46.000         94.17	    10.630
  46.020         66.67	     8.944
  46.040         70.00	     9.165
  46.060         78.33	     9.695
  46.080         66.67	     8.944
  46.100         75.00	     9.487
  46.120         71.67	     9.274
  46.140         61.67	     8.602
  46.160         56.67	     8.246
  46.180         64.17	     8.775
  46.200         64.17	     8.775
  46.220         82.50	     9.950
  46.240         61.67	     8.602
  46.260         61.67	     8.602
  46.280         55.00	     8.124
  46.300         53.33	     8.000
  46.320         55.83	     8.185
  46.340         58.33	     8.367
  46.360         59.17	     8.426
  46.380         51.67	     7.874
  46.400         38.33	     6.782
  46.420         39.17	     6.856
  46.440         45.83	     7.416
  46.460         36.67	     6.633
  46.480         31.67	     6.164
  46.500         44.17	     7.280
  46.520         39.17	     6.856
  46.540         40.00	     6.928
  46.560         39.17	     6.856
  46.580         44.17	     7.280
  46.600         50.83	     7.810
  46.620         45.00	     7.348
  46.640         47.50	     7.550
  46.660         40.00	     6.928
  46.680         44.17	     7.280
  46.700         28.33	     5.831
  46.720         40.83	     7.000
  46.740         46.67	     7.483
  46.760         28.33	     5.831
  46.780         44.17	     7.280
  46.800         30.83	     6.083
  46.820         33.33	     6.325
  46.840         29.17	     5.916
  46.860         30.00	     6.000
  46.880         45.00	     7.348
  46.900         32.50	     6.245
  46.920         34.17	     6.403
  46.940         34.17	     6.403
  46.960         39.17	     6.856
  46.980         22.50	     5.196
  47.000         30.83	     6.083
  47.020         42.50	     7.141
  47.040         44.17	     7.280
  47.060         40.00	     6.928
  47.080         51.67	     7.874
  47.100         30.83	     6.083
  47.120         32.50	     6.245
  47.140         45.83	     7.416
  47.160         61.67	     8.602
  47.180         50.83	     7.810
  47.200         64.17	     8.775
  47.220         53.33	     8.000
  47.240         41.67	     7.071
  47.260         42.50	     7.141
  47.280         47.50	     7.550
  47.300         51.67	     7.874
  47.320         45.83	     7.416
  47.340         49.17	     7.681
  47.360         38.33	     6.782
  47.380         31.67	     6.164
  47.400         32.50	     6.245
  47.420         25.83	     5.568
  47.440         31.67	     6.164
  47.460         30.00	     6.000
  47.480         35.83	     6.557
  47.500         30.83	     6.083
  47.520         43.33	     7.211
  47.540         30.00	     6.000
  47.560         34.17	     6.403
  47.580         32.50	     6.245
  47.600         35.00	     6.481
  47.620         37.50	     6.708
  47.640         39.17	     6.856
  47.660         42.50	     7.141
  47.680         35.83	     6.557
  47.700         45.00	     7.348
  47.720         33.33	     6.325
  47.740         39.17	     6.856
  47.760         23.33	     5.292
  47.780         42.50	     7.141
  47.800         35.00	     6.481
  47.820         33.33	     6.325
  47.840         37.50	     6.708
  47.860         29.17	     5.916
  47.880         35.00	     6.481
  47.900         50.83	     7.810
  47.920         34.17	     6.403
  47.940         42.50	     7.141
  47.960         40.83	     7.000
  47.980         44.17	     7.280
  48.000         51.67	     7.874
  48.020         75.00	     9.487
  48.040         53.33	     8.000
  48.060         50.00	     7.746
  48.080         46.67	     7.483
  48.100         55.83	     8.185
  48.120         52.50	     7.937
  48.140         65.00	     8.832
  48.160         69.17	     9.110
  48.180         82.50	     9.950
  48.200         81.67	     9.899
  48.220         69.17	     9.110
  48.240         75.83	     9.539
  48.260         55.00	     8.124
  48.280         75.83	     9.539
  48.300         67.50	     9.000
  48.320         86.67	    10.198
  48.340         62.50	     8.660
  48.360         60.83	     8.544
  48.380         62.50	     8.660
  48.400         71.67	     9.274
  48.420         70.83	     9.220
  48.440         67.50	     9.000
  48.460         60.00	     8.485
  48.480         54.17	     8.062
  48.500         55.83	     8.185
  48.520         62.50	     8.660
  48.540         54.17	     8.062
  48.560         48.33	     7.616
  48.580         48.33	     7.616
  48.600         43.33	     7.211
  48.620         53.33	     8.000
  48.640         29.17	     5.916
  48.660         41.67	     7.071
  48.680         35.83	     6.557
  48.700         36.67	     6.633
  48.720         45.00	     7.348
  48.740         58.33	     8.367
  48.760         44.17	     7.280
  48.780         47.50	     7.550
  48.800         39.17	     6.856
  48.820         43.33	     7.211
  48.840         52.50	     7.937
  48.860         60.83	     8.544
  48.880         52.50	     7.937
  48.900         51.67	     7.874
  48.920         38.33	     6.782
  48.940         27.50	     5.745
  48.960         38.33	     6.782
  48.980         42.50	     7.141
  49.000         40.00	     6.928
  49.020         32.50	     6.245
  49.040         42.50	     7.141
  49.060         30.83	     6.083
  49.080         40.00	     6.928
  49.100         39.17	     6.856
  49.120         47.50	     7.550
  49.140         35.83	     6.557
  49.160         28.33	     5.831
  49.180         32.50	     6.245
  49.200         43.33	     7.211
  49.220         60.00	     8.485
  49.240         58.33	     8.367
  49.260         65.83	     8.888
  49.280         65.83	     8.888
  49.300         54.17	     8.062
  49.320         48.33	     7.616
  49.340         48.33	     7.616
  49.360         45.83	     7.416
  49.380         48.33	     7.616
  49.400         48.33	     7.616
  49.420         36.67	     6.633
  49.440         33.33	     6.325
  49.460         45.00	     7.348
  49.480         40.83	     7.000
  49.500         41.67	     7.071
  49.520         45.00	     7.348
  49.540         44.17	     7.280
  49.560         59.17	     8.426
  49.580         55.00	     8.124
  49.600         44.17	     7.280
  49.620         44.17	     7.280
  49.640         49.17	     7.681
  49.660         45.83	     7.416
  49.680         55.00	     8.124
  49.700         35.83	     6.557
  49.720         38.33	     6.782
  49.740         42.50	     7.141
  49.760         45.00	     7.348
  49.780         61.67	     8.602
  49.800         45.00	     7.348
  49.820         61.67	     8.602
  49.840         82.50	     9.950
  49.860         53.33	     8.000
  49.880         62.50	     8.660
  49.900         60.83	     8.544
  49.920         90.00	    10.392
  49.940         78.33	     9.695
  49.960         90.83	    10.440
  49.980         95.00	    10.677
  50.000         85.00	    10.100
  50.020         76.67	     9.592
  50.040         83.33	    10.000
  50.060         85.83	    10.149
  50.080         92.50	    10.536
  50.100        125.00	    12.247
  50.120        135.83	    12.767
  50.140        195.00	    15.297
  50.160        238.33	    16.912
  50.180        314.17	    19.416
  50.200        301.67	    19.026
  50.220        203.33	    15.620
  50.240        144.17	    13.153
  50.260        154.17	    13.601
  50.280        137.50	    12.845
  50.300        151.67	    13.491
  50.320        164.17	    14.036
  50.340        159.17	    13.820
  50.360        118.33	    11.916
  50.380         75.83	     9.539
  50.400         70.00	     9.165
  50.420         46.67	     7.483
  50.440         44.17	     7.280
  50.460         55.83	     8.185
  50.480         48.33	     7.616
  50.500         45.83	     7.416
  50.520         45.83	     7.416
  50.540         38.33	     6.782
  50.560         55.00	     8.124
  50.580         49.17	     7.681
  50.600         50.00	     7.746
  50.620         45.83	     7.416
  50.640         75.83	     9.539
  50.660         70.00	     9.165
  50.680         59.17	     8.426
  50.700         80.83	     9.849
  50.720         65.83	     8.888
  50.740         94.17	    10.630
  50.760         73.33	     9.381
  50.780         63.33	     8.718
  50.800         56.67	     8.246
  50.820         53.33	     8.000
  50.840         59.17	     8.426
  50.860         51.67	     7.874
  50.880         50.00	     7.746
  50.900         37.50	     6.708
  50.920         43.33	     7.211
  50.940         29.17	     5.916
  50.960         34.17	     6.403
  50.980         42.50	     7.141
  51.000         32.50	     6.245
  51.020         28.33	     5.831
  51.040         32.50	     6.245
  51.060         30.83	     6.083
  51.080         30.00	     6.000
  51.100         35.83	     6.557
  51.120         50.00	     7.746
  51.140         43.33	     7.211
  51.160         52.50	     7.937
  51.180         70.83	     9.220
  51.200         64.17	     8.775
  51.220         55.00	     8.124
  51.240         48.33	     7.616
  51.260         53.33	     8.000
  51.280         40.83	     7.000
  51.300         60.00	     8.485
  51.320         54.17	     8.062
  51.340         58.33	     8.367
  51.360         53.33	     8.000
  51.380         50.83	     7.810
  51.400         50.00	     7.746
  51.420         36.67	     6.633
  51.440         50.00	     7.746
  51.460         52.50	     7.937
  51.480         29.17	     5.916
  51.500         44.17	     7.280
  51.520         38.33	     6.782
  51.540         33.33	     6.325
  51.560         36.67	     6.633
  51.580         45.83	     7.416
  51.600         38.33	     6.782
  51.620         35.83	     6.557
  51.640         27.50	     5.745
  51.660         34.17	     6.403
  51.680         28.33	     5.831
  51.700         27.50	     5.745
  51.720         30.83	     6.083
  51.740         29.17	     5.916
  51.760         30.83	     6.083
  51.780         27.50	     5.745
  51.800         32.50	     6.245
  51.820         34.17	     6.403
  51.840         26.67	     5.657
  51.860         29.17	     5.916
  51.880         33.33	     6.325
  51.900         36.67	     6.633
  51.920         25.00	     5.477
  51.940         45.00	     7.348
  51.960         27.50	     5.745
  51.980         20.83	     5.000
  52.000         27.50	     5.745
  52.020         20.00	     4.899
  52.040         36.67	     6.633
  52.060         39.17	     6.856
  52.080         43.33	     7.211
  52.100         33.33	     6.325
  52.120         44.17	     7.280
  52.140         39.17	     6.856
  52.160         43.33	     7.211
  52.180         59.17	     8.426
  52.200         56.67	     8.246
  52.220         37.50	     6.708
  52.240         63.33	     8.718
  52.260         66.67	     8.944
  52.280         72.50	     9.327
  52.300         64.17	     8.775
  52.320         60.83	     8.544
  52.340         66.67	     8.944
  52.360         66.67	     8.944
  52.380         62.50	     8.660
  52.400         50.00	     7.746
  52.420         49.17	     7.681
  52.440         48.33	     7.616
  52.460         52.50	     7.937
  52.480         51.67	     7.874
  52.500         45.00	     7.348
  52.520         55.83	     8.185
  52.540         50.00	     7.746
  52.560         43.33	     7.211
  52.580         35.00	     6.481
  52.600         65.00	     8.832
  52.620         52.50	     7.937
  52.640         47.50	     7.550
  52.660         46.67	     7.483
  52.680         43.33	     7.211
  52.700         39.17	     6.856
  52.720         42.50	     7.141
  52.740         32.50	     6.245
  52.760         48.33	     7.616
  52.780         43.33	     7.211
  52.800         50.83	     7.810
  52.820         55.00	     8.124
  52.840         54.17	     8.062
  52.860         45.00	     7.348
  52.880         54.17	     8.062
  52.900         56.67	     8.246
  52.920         53.33	     8.000
  52.940         60.83	     8.544
  52.960         64.17	     8.775
  52.980         55.83	     8.185
  53.000         57.50	     8.307
  53.020         60.00	     8.485
  53.040         53.33	     8.000
  53.060         67.50	     9.000
  53.080         60.00	     8.485
  53.100         52.50	     7.937
  53.120         58.33	     8.367
  53.140         54.17	     8.062
  53.160         48.33	     7.616
  53.180         43.33	     7.211
  53.200         53.33	     8.000
  53.220         70.83	     9.220
  53.240         74.17	     9.434
  53.260         74.17	     9.434
  53.280         55.83	     8.185
  53.300         55.00	     8.124
  53.320         58.33	     8.367
  53.340         55.00	     8.124
  53.360         60.00	     8.485
  53.380         64.17	     8.775
  53.400         58.33	     8.367
  53.420         54.17	     8.062
  53.440         39.17	     6.856
  53.460         47.50	     7.550
  53.480         51.67	     7.874
  53.500         46.67	     7.483
  53.520         55.00	     8.124
  53.540         35.83	     6.557
  53.560         42.50	     7.141
  53.580         39.17	     6.856
  53.600         34.17	     6.403
  53.620         34.17	     6.403
  53.640         36.67	     6.633
  53.660         39.17	     6.856
  53.680         44.17	     7.280
  53.700         57.50	     8.307
  53.720         45.00	     7.348
  53.740         45.83	     7.416
  53.760         39.17	     6.856
  53.780         43.33	     7.211
  53.800         25.83	     5.568
  53.820         29.17	     5.916
  53.840         39.17	     6.856
  53.860         34.17	     6.403
  53.880         43.33	     7.211
  53.900         41.67	     7.071
  53.920         35.83	     6.557
  53.940         36.67	     6.633
  53.960         36.67	     6.633
  53.980         41.67	     7.071
  54.000         50.83	     7.810
  54.020         44.17	     7.280
  54.040         47.50	     7.550
  54.060         33.33	     6.325
  54.080         35.00	     6.481
  54.100         39.17	     6.856
  54.120         33.33	     6.325
  54.140         42.50	     7.141
  54.160         45.00	     7.348
  54.180         41.67	     7.071
  54.200         30.83	     6.083
  54.220         43.33	     7.211
  54.240         39.17	     6.856
  54.260         41.67	     7.071
  54.280         44.17	     7.280
  54.300         46.67	     7.483
  54.320         53.33	     8.000
  54.340         41.67	     7.071
  54.360         45.83	     7.416
  54.380         47.50	     7.550
  54.400         41.67	     7.071
  54.420         45.83	     7.416
  54.440         49.17	     7.681
  54.460         52.50	     7.937
  54.480         45.00	     7.348
  54.500         50.83	     7.810
  54.520         41.67	     7.071
  54.540         50.00	     7.746
  54.560         60.83	     8.544
  54.580         54.17	     8.062
  54.600         53.33	     8.000
  54.620         52.50	     7.937
  54.640         53.33	     8.000
  54.660         63.33	     8.718
  54.680         57.50	     8.307
  54.700         49.17	     7.681
  54.720         51.67	     7.874
  54.740         58.33	     8.367
  54.760         43.33	     7.211
  54.780         46.67	     7.483
  54.800         65.83	     8.888
  54.820         55.83	     8.185
  54.840         75.00	     9.487
  54.860         75.00	     9.487
  54.880        101.67	    11.045
  54.900        126.67	    12.329
  54.920        140.00	    12.961
  54.940        115.83	    11.790
  54.960         82.50	     9.950
  54.980         75.00	     9.487
  55.000         60.83	     8.544
  55.020         80.83	     9.849
  55.040         99.17	    10.909
  55.060        105.00	    11.225
  55.080         92.50	    10.536
  55.100         81.67	     9.899
  55.120         64.17	     8.775
  55.140         73.33	     9.381
  55.160         59.17	     8.426
  55.180         78.33	     9.695
  55.200         72.50	     9.327
  55.220         69.17	     9.110
  55.240         59.17	     8.426
  55.260         71.67	     9.274
  55.280         69.17	     9.110
  55.300         77.50	     9.644
  55.320         80.00	     9.798
  55.340         96.67	    10.770
  55.360         95.00	    10.677
  55.380         90.00	    10.392
  55.400         85.83	    10.149
  55.420         86.67	    10.198
  55.440         77.50	     9.644
  55.460         82.50	     9.950
  55.480         69.17	     9.110
  55.500         83.33	    10.000
  55.520         77.50	     9.644
  55.540         65.00	     8.832
  55.560         66.67	     8.944
  55.580         64.17	     8.775
  55.600         50.83	     7.810
  55.620         62.50	     8.660
  55.640         74.17	     9.434
  55.660         65.00	     8.832
  55.680         73.33	     9.381
  55.700         75.83	     9.539
  55.720         92.50	    10.536
  55.740         88.33	    10.296
  55.760         96.67	    10.770
  55.780         85.83	    10.149
  55.800        101.67	    11.045
  55.820        126.67	    12.329
  55.840        118.33	    11.916
  55.860        109.17	    11.446
  55.880        119.17	    11.958
  55.900        110.83	    11.533
  55.920        118.33	    11.916
  55.940        107.50	    11.358
  55.960        103.33	    11.136
  55.980         90.00	    10.392
  56.000         87.50	    10.247
  56.020         95.00	    10.677
  56.040         67.50	     9.000
  56.060         64.17	     8.775
  56.080         93.33	    10.583
  56.100         68.33	     9.055
  56.120         67.50	     9.000
  56.140         72.50	     9.327
  56.160         50.83	     7.810
  56.180         54.17	     8.062
  56.200         56.67	     8.246
  56.220         50.83	     7.810
  56.240         44.17	     7.280
  56.260         44.17	     7.280
  56.280         65.00	     8.832
  56.300         48.33	     7.616
  56.320         42.50	     7.141
  56.340         30.00	     6.000
  56.360         43.33	     7.211
  56.380         40.83	     7.000
  56.400         40.00	     6.928
  56.420         40.00	     6.928
  56.440         45.83	     7.416
  56.460         50.00	     7.746
  56.480         35.83	     6.557
  56.500         45.00	     7.348
  56.520         35.00	     6.481
  56.540         31.67	     6.164
  56.560         49.17	     7.681
  56.580         40.83	     7.000
  56.600         33.33	     6.325
  56.620         35.83	     6.557
  56.640         38.33	     6.782
  56.660         42.50	     7.141
  56.680         40.00	     6.928
  56.700         48.33	     7.616
  56.720         44.17	     7.280
  56.740         40.83	     7.000
  56.760         43.33	     7.211
  56.780         47.50	     7.550
  56.800         52.50	     7.937
  56.820         42.50	     7.141
  56.840         41.67	     7.071
  56.860         42.50	     7.141
  56.880         40.00	     6.928
  56.900         39.17	     6.856
  56.920         34.17	     6.403
  56.940         38.33	     6.782
  56.960         45.00	     7.348
  56.980         42.50	     7.141
  57.000         39.17	     6.856
  57.020         35.83	     6.557
  57.040         48.33	     7.616
  57.060         49.17	     7.681
  57.080         42.50	     7.141
  57.100         30.83	     6.083
  57.120         32.50	     6.245
  57.140         50.83	     7.810
  57.160         36.67	     6.633
  57.180         36.67	     6.633
  57.200         45.00	     7.348
  57.220         30.83	     6.083
  57.240         43.33	     7.211
  57.260         36.67	     6.633
  57.280         42.50	     7.141
  57.300         45.83	     7.416
  57.320         34.17	     6.403
  57.340         35.83	     6.557
  57.360         40.00	     6.928
  57.380         46.67	     7.483
  57.400         35.00	     6.481
  57.420         40.83	     7.000
  57.440         33.33	     6.325
  57.460         35.83	     6.557
  57.480         60.00	     8.485
  57.500         46.67	     7.483
  57.520         44.17	     7.280
  57.540         40.00	     6.928
  57.560         45.00	     7.348
  57.580         47.50	     7.550
  57.600         37.50	     6.708
  57.620         50.83	     7.810
  57.640         36.67	     6.633
  57.660         47.50	     7.550
  57.680         56.67	     8.246
  57.700         40.83	     7.000
  57.720         42.50	     7.141
  57.740         50.83	     7.810
  57.760         47.50	     7.550
  57.780         45.00	     7.348
  57.800         42.50	     7.141
  57.820         37.50	     6.708
  57.840         45.83	     7.416
  57.860         60.00	     8.485
  57.880         31.67	     6.164
  57.900         45.83	     7.416
  57.920         28.33	     5.831
  57.940         40.00	     6.928
  57.960         40.83	     7.000
  57.980         40.00	     6.928
  58.000         50.00	     7.746
  58.020         30.83	     6.083
  58.040         35.83	     6.557
  58.060         35.00	     6.481
  58.080         38.33	     6.782
  58.100         43.33	     7.211
  58.120         42.50	     7.141
  58.140         37.50	     6.708
  58.160         31.67	     6.164
  58.180         38.33	     6.782
  58.200         44.17	     7.280
  58.220         26.67	     5.657
  58.240         49.17	     7.681
  58.260         44.17	     7.280
  58.280         43.33	     7.211
  58.300         47.50	     7.550
  58.320         50.00	     7.746
  58.340         56.67	     8.246
  58.360         41.67	     7.071
  58.380         49.17	     7.681
  58.400         49.17	     7.681
  58.420         37.50	     6.708
  58.440         34.17	     6.403
  58.460         40.83	     7.000
  58.480         45.83	     7.416
  58.500         38.33	     6.782
  58.520         38.33	     6.782
  58.540         50.00	     7.746
  58.560         51.67	     7.874
  58.580         50.83	     7.810
  58.600         50.00	     7.746
  58.620         65.83	     8.888
  58.640         53.33	     8.000
  58.660         52.50	     7.937
  58.680         49.17	     7.681
  58.700         67.50	     9.000
  58.720         66.67	     8.944
  58.740         60.00	     8.485
  58.760         62.50	     8.660
  58.780         68.33	     9.055
  58.800         75.00	     9.487
  58.820         68.33	     9.055
  58.840         68.33	     9.055
  58.860         63.33	     8.718
  58.880         57.50	     8.307
  58.900         54.17	     8.062
  58.920         64.17	     8.775
  58.940         66.67	     8.944
  58.960         54.17	     8.062
  58.980         81.67	     9.899
  59.000         71.67	     9.274
  59.020         70.00	     9.165
  59.040         64.17	     8.775
  59.060         74.17	     9.434
  59.080         80.00	     9.798
  59.100         59.17	     8.426
  59.120         63.33	     8.718
  59.140         50.00	     7.746
  59.160         70.00	     9.165
  59.180         61.67	     8.602
  59.200         71.67	     9.274
  59.220         59.17	     8.426
  59.240         76.67	     9.592
  59.260         71.67	     9.274
  59.280         53.33	     8.000
  59.300         60.83	     8.544
  59.320         50.00	     7.746
  59.340         51.67	     7.874
  59.360         51.67	     7.874
  59.380         47.50	     7.550
  59.400         56.67	     8.246
  59.420         60.00	     8.485
  59.440         56.67	     8.246
  59.460         56.67	     8.246
  59.480         45.83	     7.416
  59.500         51.67	     7.874
  59.520         38.33	     6.782
  59.540         43.33	     7.211
  59.560         55.83	     8.185
  59.580         56.67	     8.246
  59.600         50.00	     7.746
  59.620         54.17	     8.062
  59.640         59.17	     8.426
  59.660         55.00	     8.124
  59.680         61.67	     8.602
  59.700         46.67	     7.483
  59.720         55.00	     8.124
  59.740         66.67	     8.944
  59.760         67.50	     9.000
  59.780         55.83	     8.185
  59.800         62.50	     8.660
  59.820         55.83	     8.185
  59.840         74.17	     9.434
  59.860         65.00	     8.832
  59.880         79.17	     9.747
  59.900         78.33	     9.695
  59.920         95.83	    10.724
  59.940        109.17	    11.446
  59.960        173.33	    14.422
  59.980        200.00	    15.492
  60.000        212.50	    15.969
  60.020        215.00	    16.062
  60.040        187.50	    15.000
  60.060        135.00	    12.728
  60.080        130.83	    12.530
  60.100        118.33	    11.916
  60.120        119.17	    11.958
  60.140        133.33	    12.649
  60.160        140.83	    13.000
  60.180        140.83	    13.000
  60.200        115.83	    11.790
  60.220        108.33	    11.402
  60.240         85.83	    10.149
  60.260         69.17	     9.110
  60.280         68.33	     9.055
  60.300         60.00	     8.485
  60.320         61.67	     8.602
  60.340         66.67	     8.944
  60.360         57.50	     8.307
  60.380         55.00	     8.124
  60.400         57.50	     8.307
  60.420         48.33	     7.616
  60.440         53.33	     8.000
  60.460         58.33	     8.367
  60.480         66.67	     8.944
  60.500         66.67	     8.944
  60.520         53.33	     8.000
  60.540         58.33	     8.367
  60.560         45.00	     7.348
  60.580         40.83	     7.000
  60.600         70.00	     9.165
  60.620         57.50	     8.307
  60.640         64.17	     8.775
  60.660         51.67	     7.874
  60.680         63.33	     8.718
  60.700         64.17	     8.775
  60.720         76.67	     9.592
  60.740         65.00	     8.832
  60.760         73.33	     9.381
  60.780         65.00	     8.832
  60.800         75.00	     9.487
  60.820         73.33	     9.381
  60.840         75.83	     9.539
  60.860         70.83	     9.220
  60.880         84.17	    10.050
  60.900         90.00	    10.392
  60.920         84.17	    10.050
  60.940         74.17	     9.434
  60.960         81.67	     9.899
  60.980         75.83	     9.539
  61.000         72.50	     9.327
  61.020         66.67	     8.944
  61.040         55.83	     8.185
  61.060         66.67	     8.944
  61.080         61.67	     8.602
  61.100         70.83	     9.220
  61.120         62.50	     8.660
  61.140         57.50	     8.307
  61.160         65.83	     8.888
  61.180         46.67	     7.483
  61.200         49.17	     7.681
  61.220         53.33	     8.000
  61.240         63.33	     8.718
  61.260         70.83	     9.220
  61.280         49.17	     7.681
  61.300         51.67	     7.874
  61.320         63.33	     8.718
  61.340         57.50	     8.307
  61.360         77.50	     9.644
  61.380         53.33	     8.000
  61.400         68.33	     9.055
  61.420         82.50	     9.950
  61.440         55.00	     8.124
  61.460         70.83	     9.220
  61.480         70.00	     9.165
  61.500         87.50	    10.247
  61.520         93.33	    10.583
  61.540         79.17	     9.747
  61.560        102.50	    11.091
  61.580        108.33	    11.402
  61.600         93.33	    10.583
  61.620         96.67	    10.770
  61.640         82.50	     9.950
  61.660         96.67	    10.770
  61.680         92.50	    10.536
  61.700         87.50	    10.247
  61.720         91.67	    10.488
  61.740         90.00	    10.392
  61.760         91.67	    10.488
  61.780         99.17	    10.909
  61.800         99.17	    10.909
  61.820         91.67	    10.488
  61.840         82.50	     9.950
  61.860         89.17	    10.344
  61.880         78.33	     9.695
  61.900         75.83	     9.539
  61.920         67.50	     9.000
  61.940         63.33	     8.718
  61.960         60.83	     8.544
  61.980         60.83	     8.544
  62.000         55.00	     8.124
  62.020         42.50	     7.141
  62.040         57.50	     8.307
  62.060         50.83	     7.810
  62.080         37.50	     6.708
  62.100         39.17	     6.856
  62.120         43.33	     7.211
  62.140         56.67	     8.246
  62.160         39.17	     6.856
  62.180         40.83	     7.000
  62.200         39.17	     6.856
  62.220         40.83	     7.000
  62.240         52.50	     7.937
  62.260         36.67	     6.633
  62.280         33.33	     6.325
  62.300         30.83	     6.083
  62.320         30.83	     6.083
  62.340         44.17	     7.280
  62.360         48.33	     7.616
  62.380         37.50	     6.708
  62.400         46.67	     7.483
  62.420         30.00	     6.000
  62.440         39.17	     6.856
  62.460         35.83	     6.557
  62.480         47.50	     7.550
  62.500         40.00	     6.928
  62.520         49.17	     7.681
  62.540         42.50	     7.141
  62.560         39.17	     6.856
  62.580         43.33	     7.211
  62.600         39.17	     6.856
  62.620         39.17	     6.856
  62.640         34.17	     6.403
  62.660         35.00	     6.481
  62.680         29.17	     5.916
  62.700         35.83	     6.557
  62.720         42.50	     7.141
  62.740         39.17	     6.856
  62.760         48.33	     7.616
  62.780         30.00	     6.000
  62.800         34.17	     6.403
  62.820         32.50	     6.245
  62.840         41.67	     7.071
  62.860         38.33	     6.782
  62.880         37.50	     6.708
  62.900         31.67	     6.164
  62.920         37.50	     6.708
  62.940         40.00	     6.928
  62.960         34.17	     6.403
  62.980         29.17	     5.916
  63.000         33.33	     6.325
  63.020         40.83	     7.000
  63.040         33.33	     6.325
  63.060         50.00	     7.746
  63.080         31.67	     6.164
  63.100         37.50	     6.708
  63.120         47.50	     7.550
  63.140         47.50	     7.550
  63.160         45.00	     7.348
  63.180         45.00	     7.348
  63.200         40.00	     6.928
  63.220         45.00	     7.348
  63.240         46.67	     7.483
  63.260         46.67	     7.483
  63.280         45.83	     7.416
  63.300         45.83	     7.416
  63.320         43.33	     7.211
  63.340         39.17	     6.856
  63.360         51.67	     7.874
  63.380         45.83	     7.416
  63.400         39.17	     6.856
  63.420         37.50	     6.708
  63.440         48.33	     7.616
  63.460         38.33	     6.782
  63.480         40.00	     6.928
  63.500         41.67	     7.071
  63.520         48.33	     7.616
  63.540         41.67	     7.071
  63.560         50.83	     7.810
  63.580         52.50	     7.937
  63.600         46.67	     7.483
  63.620         42.50	     7.141
  63.640         51.67	     7.874
  63.660         45.83	     7.416
  63.680         50.00	     7.746
  63.700         44.17	     7.280
  63.720         49.17	     7.681
  63.740         51.67	     7.874
  63.760         42.50	     7.141
  63.780         62.50	     8.660
  63.800         57.50	     8.307
  63.820         75.83	     9.539
  63.840         89.17	    10.344
  63.860         60.00	     8.485
  63.880         74.17	     9.434
  63.900         62.50	     8.660
  63.920         53.33	     8.000
  63.940         48.33	     7.616
  63.960         60.00	     8.485
  63.980         54.17	     8.062
  64.000         74.17	     9.434
  64.020         76.67	     9.592
  64.040         84.17	    10.050
  64.060         81.67	     9.899
  64.080         80.00	     9.798
  64.100         82.50	     9.950
  64.120         62.50	     8.660
  64.140         65.00	     8.832
  64.160         60.00	     8.485
  64.180         55.83	     8.185
  64.200         58.33	     8.367
  64.220         49.17	     7.681
  64.240         53.33	     8.000
  64.260         60.83	     8.544
  64.280         65.83	     8.888
  64.300         70.00	     9.165
  64.320         63.33	     8.718
  64.340         54.17	     8.062
  64.360         57.50	     8.307
  64.380         64.17	     8.775
  64.400         74.17	     9.434
  64.420         89.17	    10.344
  64.440         75.00	     9.487
  64.460         60.83	     8.544
  64.480         60.83	     8.544
  64.500         49.17	     7.681
  64.520         58.33	     8.367
  64.540         52.50	     7.937
  64.560         42.50	     7.141
  64.580         54.17	     8.062
  64.600         50.83	     7.810
  64.620         60.00	     8.485
  64.640         59.17	     8.426
  64.660         50.83	     7.810
  64.680         39.17	     6.856
  64.700         49.17	     7.681
  64.720         50.00	     7.746
  64.740         49.17	     7.681
  64.760         34.17	     6.403
  64.780         45.83	     7.416
  64.800         50.83	     7.810
  64.820         52.50	     7.937
  64.840         49.17	     7.681
  64.860         62.50	     8.660
  64.880         47.50	     7.550
  64.900         56.67	     8.246
  64.920         48.33	     7.616
  64.940         45.00	     7.348
  64.960         43.33	     7.211
  64.980         65.83	     8.888
  65.000         54.17	     8.062
