
Filename:
	C:\Program Files\Thermo Electron\WinXRD\Datafiles\F_HERMAN\GEO\GG_22_SFT.raw

File Created:
	October 14, 2020 - 08:10 AM

Specimen Id:
	GG 22 SFT

Specimen Name:
	

Specimen Description:
	

Comment:
Scan Type: 2Theta Scan
Start Angle: 3 deg.
Stop Angle: 65 deg.
Num Points: 3101
Step Size: 0.02 deg.
Scan Rate: 1.000000
Scan Mode: Continuous
Wavelength: 1.540562
\Kalpha1: 1.540562	\Kalpha2: 1.544390	\Kbeta: 1.392218

Optics:
		Detector:
			 Type: Fixed Slits
		Tube: 
			 Type: Fixed Slits


Datas:
 Pos [deg]       Rate [CPS]      ESD [-]

Range 1 ---> Iteration 1
   3.000        346.67	    20.396
   3.020        340.00	    20.199
   3.040        366.67	    20.976
   3.060        335.00	    20.050
   3.080        342.50	    20.273
   3.100        352.50	    20.567
   3.120        312.50	    19.365
   3.140        324.17	    19.723
   3.160        352.50	    20.567
   3.180        314.17	    19.416
   3.200        351.67	    20.543
   3.220        306.67	    19.183
   3.240        339.17	    20.174
   3.260        325.00	    19.748
   3.280        333.33	    20.000
   3.300        326.67	    19.799
   3.320        318.33	    19.545
   3.340        320.00	    19.596
   3.360        324.17	    19.723
   3.380        317.50	    19.519
   3.400        334.17	    20.025
   3.420        308.33	    19.235
   3.440        315.83	    19.468
   3.460        301.67	    19.026
   3.480        305.83	    19.157
   3.500        270.83	    18.028
   3.520        289.17	    18.628
   3.540        292.50	    18.735
   3.560        323.33	    19.698
   3.580        275.00	    18.166
   3.600        312.50	    19.365
   3.620        289.17	    18.628
   3.640        273.33	    18.111
   3.660        281.67	    18.385
   3.680        285.00	    18.493
   3.700        305.83	    19.157
   3.720        274.17	    18.138
   3.740        264.17	    17.804
   3.760        265.83	    17.861
   3.780        252.50	    17.407
   3.800        276.67	    18.221
   3.820        277.50	    18.248
   3.840        296.67	    18.868
   3.860        279.17	    18.303
   3.880        254.17	    17.464
   3.900        251.67	    17.378
   3.920        241.67	    17.029
   3.940        270.83	    18.028
   3.960        250.00	    17.321
   3.980        245.00	    17.146
   4.000        241.67	    17.029
   4.020        245.00	    17.146
   4.040        253.33	    17.436
   4.060        248.33	    17.263
   4.080        264.17	    17.804
   4.100        213.33	    16.000
   4.120        242.50	    17.059
   4.140        215.00	    16.062
   4.160        242.50	    17.059
   4.180        231.67	    16.673
   4.200        225.83	    16.462
   4.220        216.67	    16.125
   4.240        261.67	    17.720
   4.260        240.00	    16.971
   4.280        215.83	    16.093
   4.300        233.33	    16.733
   4.320        220.00	    16.248
   4.340        236.67	    16.852
   4.360        215.00	    16.062
   4.380        225.83	    16.462
   4.400        216.67	    16.125
   4.420        225.83	    16.462
   4.440        233.33	    16.733
   4.460        223.33	    16.371
   4.480        198.33	    15.427
   4.500        215.83	    16.093
   4.520        211.67	    15.937
   4.540        218.33	    16.186
   4.560        205.00	    15.684
   4.580        232.50	    16.703
   4.600        186.67	    14.967
   4.620        202.50	    15.588
   4.640        230.00	    16.613
   4.660        190.83	    15.133
   4.680        212.50	    15.969
   4.700        201.67	    15.556
   4.720        175.00	    14.491
   4.740        179.17	    14.663
   4.760        214.17	    16.031
   4.780        183.33	    14.832
   4.800        178.33	    14.629
   4.820        183.33	    14.832
   4.840        177.50	    14.595
   4.860        160.83	    13.892
   4.880        190.83	    15.133
   4.900        196.67	    15.362
   4.920        175.83	    14.526
   4.940        196.67	    15.362
   4.960        195.83	    15.330
   4.980        162.50	    13.964
   5.000        195.83	    15.330
   5.020        175.83	    14.526
   5.040        182.50	    14.799
   5.060        171.67	    14.353
   5.080        170.00	    14.283
   5.100        167.50	    14.177
   5.120        178.33	    14.629
   5.140        176.67	    14.560
   5.160        174.17	    14.457
   5.180        210.83	    15.906
   5.200        170.00	    14.283
   5.220        183.33	    14.832
   5.240        195.00	    15.297
   5.260        181.67	    14.765
   5.280        163.33	    14.000
   5.300        181.67	    14.765
   5.320        161.67	    13.928
   5.340        165.83	    14.107
   5.360        188.33	    15.033
   5.380        176.67	    14.560
   5.400        185.83	    14.933
   5.420        163.33	    14.000
   5.440        181.67	    14.765
   5.460        176.67	    14.560
   5.480        182.50	    14.799
   5.500        180.83	    14.731
   5.520        170.00	    14.283
   5.540        136.67	    12.806
   5.560        160.83	    13.892
   5.580        183.33	    14.832
   5.600        168.33	    14.213
   5.620        167.50	    14.177
   5.640        150.83	    13.454
   5.660        164.17	    14.036
   5.680        175.00	    14.491
   5.700        177.50	    14.595
   5.720        171.67	    14.353
   5.740        148.33	    13.342
   5.760        184.17	    14.866
   5.780        188.33	    15.033
   5.800        171.67	    14.353
   5.820        176.67	    14.560
   5.840        174.17	    14.457
   5.860        175.00	    14.491
   5.880        189.17	    15.067
   5.900        182.50	    14.799
   5.920        202.50	    15.588
   5.940        185.83	    14.933
   5.960        197.50	    15.395
   5.980        176.67	    14.560
   6.000        210.83	    15.906
   6.020        160.00	    13.856
   6.040        244.17	    17.117
   6.060        220.83	    16.279
   6.080        230.83	    16.643
   6.100        261.67	    17.720
   6.120        308.33	    19.235
   6.140        290.83	    18.682
   6.160        312.50	    19.365
   6.180        309.17	    19.261
   6.200        284.17	    18.466
   6.220        285.83	    18.520
   6.240        275.83	    18.193
   6.260        246.67	    17.205
   6.280        281.67	    18.385
   6.300        228.33	    16.553
   6.320        267.50	    17.916
   6.340        262.50	    17.748
   6.360        270.83	    18.028
   6.380        277.50	    18.248
   6.400        315.00	    19.442
   6.420        286.67	    18.547
   6.440        271.67	    18.055
   6.460        245.83	    17.176
   6.480        243.33	    17.088
   6.500        199.17	    15.460
   6.520        175.00	    14.491
   6.540        167.50	    14.177
   6.560        170.00	    14.283
   6.580        166.67	    14.142
   6.600        172.50	    14.387
   6.620        134.17	    12.689
   6.640        165.83	    14.107
   6.660        165.83	    14.107
   6.680        143.33	    13.115
   6.700        159.17	    13.820
   6.720        154.17	    13.601
   6.740        158.33	    13.784
   6.760        124.17	    12.207
   6.780        135.83	    12.767
   6.800        150.00	    13.416
   6.820        130.83	    12.530
   6.840        125.00	    12.247
   6.860        145.83	    13.229
   6.880        149.17	    13.379
   6.900        119.17	    11.958
   6.920        151.67	    13.491
   6.940        149.17	    13.379
   6.960        137.50	    12.845
   6.980        126.67	    12.329
   7.000        115.83	    11.790
   7.020        143.33	    13.115
   7.040        125.00	    12.247
   7.060        127.50	    12.369
   7.080        165.00	    14.071
   7.100        134.17	    12.689
   7.120        126.67	    12.329
   7.140        120.00	    12.000
   7.160        127.50	    12.369
   7.180        126.67	    12.329
   7.200        137.50	    12.845
   7.220        133.33	    12.649
   7.240        134.17	    12.689
   7.260        136.67	    12.806
   7.280        132.50	    12.610
   7.300        125.83	    12.288
   7.320        120.83	    12.042
   7.340        120.00	    12.000
   7.360        124.17	    12.207
   7.380        137.50	    12.845
   7.400        145.00	    13.191
   7.420        128.33	    12.410
   7.440         96.67	    10.770
   7.460        130.83	    12.530
   7.480        109.17	    11.446
   7.500        137.50	    12.845
   7.520        111.67	    11.576
   7.540        128.33	    12.410
   7.560        129.17	    12.450
   7.580        119.17	    11.958
   7.600        133.33	    12.649
   7.620        105.00	    11.225
   7.640        115.83	    11.790
   7.660        128.33	    12.410
   7.680        129.17	    12.450
   7.700        120.00	    12.000
   7.720        102.50	    11.091
   7.740         98.33	    10.863
   7.760        133.33	    12.649
   7.780        127.50	    12.369
   7.800        117.50	    11.874
   7.820        127.50	    12.369
   7.840        105.83	    11.269
   7.860        123.33	    12.166
   7.880        109.17	    11.446
   7.900        113.33	    11.662
   7.920        120.00	    12.000
   7.940        103.33	    11.136
   7.960        120.83	    12.042
   7.980        130.00	    12.490
   8.000        117.50	    11.874
   8.020        114.17	    11.705
   8.040        120.83	    12.042
   8.060        128.33	    12.410
   8.080        114.17	    11.705
   8.100        117.50	    11.874
   8.120        120.83	    12.042
   8.140        120.00	    12.000
   8.160        110.00	    11.489
   8.180        124.17	    12.207
   8.200        133.33	    12.649
   8.220        117.50	    11.874
   8.240        122.50	    12.124
   8.260        120.83	    12.042
   8.280        101.67	    11.045
   8.300        115.00	    11.747
   8.320        113.33	    11.662
   8.340        133.33	    12.649
   8.360        118.33	    11.916
   8.380        122.50	    12.124
   8.400        126.67	    12.329
   8.420        105.83	    11.269
   8.440        110.83	    11.533
   8.460        136.67	    12.806
   8.480        138.33	    12.884
   8.500        136.67	    12.806
   8.520        139.17	    12.923
   8.540        131.67	    12.570
   8.560        156.67	    13.711
   8.580        149.17	    13.379
   8.600        138.33	    12.884
   8.620        155.83	    13.675
   8.640        146.67	    13.266
   8.660        158.33	    13.784
   8.680        179.17	    14.663
   8.700        173.33	    14.422
   8.720        161.67	    13.928
   8.740        175.00	    14.491
   8.760        174.17	    14.457
   8.780        200.83	    15.524
   8.800        179.17	    14.663
   8.820        192.50	    15.199
   8.840        199.17	    15.460
   8.860        235.00	    16.793
   8.880        230.00	    16.613
   8.900        234.17	    16.763
   8.920        235.83	    16.823
   8.940        288.33	    18.601
   8.960        308.33	    19.235
   8.980        320.00	    19.596
   9.000        389.17	    21.610
   9.020        440.00	    22.978
   9.040        543.33	    25.534
   9.060        573.33	    26.230
   9.080        570.00	    26.153
   9.100        472.50	    23.812
   9.120        345.83	    20.372
   9.140        220.83	    16.279
   9.160        214.17	    16.031
   9.180        161.67	    13.928
   9.200        155.83	    13.675
   9.220        150.83	    13.454
   9.240        137.50	    12.845
   9.260        128.33	    12.410
   9.280        135.83	    12.767
   9.300        131.67	    12.570
   9.320        142.50	    13.077
   9.340        134.17	    12.689
   9.360        129.17	    12.450
   9.380        121.67	    12.083
   9.400        115.83	    11.790
   9.420         94.17	    10.630
   9.440        115.00	    11.747
   9.460        110.00	    11.489
   9.480        111.67	    11.576
   9.500         97.50	    10.817
   9.520         91.67	    10.488
   9.540        113.33	    11.662
   9.560        115.83	    11.790
   9.580        130.83	    12.530
   9.600        160.83	    13.892
   9.620        139.17	    12.923
   9.640        175.83	    14.526
   9.660        152.50	    13.528
   9.680        130.00	    12.490
   9.700        114.17	    11.705
   9.720        104.17	    11.180
   9.740         96.67	    10.770
   9.760         86.67	    10.198
   9.780         84.17	    10.050
   9.800        104.17	    11.180
   9.820         88.33	    10.296
   9.840         75.83	     9.539
   9.860         80.00	     9.798
   9.880         82.50	     9.950
   9.900         85.83	    10.149
   9.920         85.00	    10.100
   9.940         87.50	    10.247
   9.960        105.00	    11.225
   9.980         93.33	    10.583
  10.000         93.33	    10.583
  10.020         84.17	    10.050
  10.040         86.67	    10.198
  10.060         81.67	     9.899
  10.080         88.33	    10.296
  10.100         82.50	     9.950
  10.120         81.67	     9.899
  10.140         69.17	     9.110
  10.160         74.17	     9.434
  10.180         76.67	     9.592
  10.200         73.33	     9.381
  10.220         70.00	     9.165
  10.240         62.50	     8.660
  10.260         75.00	     9.487
  10.280         83.33	    10.000
  10.300         97.50	    10.817
  10.320         83.33	    10.000
  10.340         87.50	    10.247
  10.360         77.50	     9.644
  10.380         79.17	     9.747
  10.400         74.17	     9.434
  10.420         78.33	     9.695
  10.440         74.17	     9.434
  10.460         93.33	    10.583
  10.480         80.83	     9.849
  10.500         75.00	     9.487
  10.520         78.33	     9.695
  10.540         88.33	    10.296
  10.560         82.50	     9.950
  10.580         87.50	    10.247
  10.600         96.67	    10.770
  10.620        111.67	    11.576
  10.640        148.33	    13.342
  10.660        156.67	    13.711
  10.680        188.33	    15.033
  10.700        179.17	    14.663
  10.720        169.17	    14.248
  10.740        182.50	    14.799
  10.760        130.00	    12.490
  10.780        119.17	    11.958
  10.800         87.50	    10.247
  10.820         84.17	    10.050
  10.840         70.83	     9.220
  10.860         84.17	    10.050
  10.880         82.50	     9.950
  10.900         78.33	     9.695
  10.920         90.00	    10.392
  10.940         67.50	     9.000
  10.960         75.83	     9.539
  10.980         75.00	     9.487
  11.000         62.50	     8.660
  11.020         77.50	     9.644
  11.040         72.50	     9.327
  11.060         70.83	     9.220
  11.080         60.00	     8.485
  11.100         76.67	     9.592
  11.120         70.83	     9.220
  11.140         52.50	     7.937
  11.160         85.83	    10.149
  11.180         55.00	     8.124
  11.200         60.83	     8.544
  11.220         75.00	     9.487
  11.240         88.33	    10.296
  11.260         63.33	     8.718
  11.280         70.00	     9.165
  11.300         72.50	     9.327
  11.320         80.83	     9.849
  11.340         56.67	     8.246
  11.360         75.83	     9.539
  11.380         60.83	     8.544
  11.400         57.50	     8.307
  11.420         70.00	     9.165
  11.440         62.50	     8.660
  11.460         65.00	     8.832
  11.480         66.67	     8.944
  11.500         70.00	     9.165
  11.520         67.50	     9.000
  11.540         72.50	     9.327
  11.560         82.50	     9.950
  11.580         65.00	     8.832
  11.600         75.83	     9.539
  11.620         73.33	     9.381
  11.640         62.50	     8.660
  11.660         55.83	     8.185
  11.680         75.00	     9.487
  11.700         72.50	     9.327
  11.720         74.17	     9.434
  11.740         78.33	     9.695
  11.760         73.33	     9.381
  11.780         65.00	     8.832
  11.800         75.00	     9.487
  11.820         70.00	     9.165
  11.840         96.67	    10.770
  11.860         64.17	     8.775
  11.880         76.67	     9.592
  11.900         83.33	    10.000
  11.920         88.33	    10.296
  11.940         82.50	     9.950
  11.960         83.33	    10.000
  11.980         79.17	     9.747
  12.000         83.33	    10.000
  12.020         90.83	    10.440
  12.040         82.50	     9.950
  12.060         93.33	    10.583
  12.080         80.00	     9.798
  12.100         95.00	    10.677
  12.120        100.00	    10.954
  12.140        108.33	    11.402
  12.160        121.67	    12.083
  12.180        132.50	    12.610
  12.200        115.00	    11.747
  12.220        155.83	    13.675
  12.240        146.67	    13.266
  12.260        182.50	    14.799
  12.280        250.83	    17.349
  12.300        314.17	    19.416
  12.320        425.83	    22.605
  12.340        577.50	    26.325
  12.360        813.33	    31.241
  12.380        885.83	    32.604
  12.400        770.00	    30.397
  12.420        638.33	    27.677
  12.440        477.50	    23.937
  12.460        371.67	    21.119
  12.480        312.50	    19.365
  12.500        310.00	    19.287
  12.520        295.83	    18.841
  12.540        355.00	    20.640
  12.560        355.00	    20.640
  12.580        354.17	    20.616
  12.600        378.33	    21.307
  12.620        432.50	    22.782
  12.640        486.67	    24.166
  12.660        622.50	    27.331
  12.680        605.00	    26.944
  12.700        561.67	    25.962
  12.720        463.33	    23.580
  12.740        335.83	    20.075
  12.760        237.50	    16.882
  12.780        183.33	    14.832
  12.800        147.50	    13.304
  12.820        110.83	    11.533
  12.840        112.50	    11.619
  12.860         93.33	    10.583
  12.880         83.33	    10.000
  12.900        100.83	    11.000
  12.920         89.17	    10.344
  12.940         79.17	     9.747
  12.960         80.00	     9.798
  12.980         73.33	     9.381
  13.000         75.00	     9.487
  13.020         76.67	     9.592
  13.040         70.00	     9.165
  13.060         70.83	     9.220
  13.080         73.33	     9.381
  13.100         53.33	     8.000
  13.120         65.83	     8.888
  13.140         61.67	     8.602
  13.160         60.00	     8.485
  13.180         52.50	     7.937
  13.200         73.33	     9.381
  13.220         59.17	     8.426
  13.240         54.17	     8.062
  13.260         63.33	     8.718
  13.280         62.50	     8.660
  13.300         45.00	     7.348
  13.320         70.83	     9.220
  13.340         60.83	     8.544
  13.360         60.83	     8.544
  13.380         60.83	     8.544
  13.400         66.67	     8.944
  13.420         78.33	     9.695
  13.440         53.33	     8.000
  13.460         55.00	     8.124
  13.480         60.83	     8.544
  13.500         63.33	     8.718
  13.520         67.50	     9.000
  13.540         70.00	     9.165
  13.560         50.83	     7.810
  13.580         51.67	     7.874
  13.600         58.33	     8.367
  13.620         62.50	     8.660
  13.640         52.50	     7.937
  13.660         59.17	     8.426
  13.680         68.33	     9.055
  13.700         66.67	     8.944
  13.720         65.00	     8.832
  13.740         66.67	     8.944
  13.760         54.17	     8.062
  13.780         57.50	     8.307
  13.800         70.83	     9.220
  13.820         65.83	     8.888
  13.840         65.00	     8.832
  13.860         56.67	     8.246
  13.880         62.50	     8.660
  13.900         69.17	     9.110
  13.920         49.17	     7.681
  13.940         60.83	     8.544
  13.960         46.67	     7.483
  13.980         65.00	     8.832
  14.000         85.00	    10.100
  14.020         93.33	    10.583
  14.040         91.67	    10.488
  14.060         90.00	    10.392
  14.080        105.00	    11.225
  14.100         74.17	     9.434
  14.120         82.50	     9.950
  14.140         61.67	     8.602
  14.160         62.50	     8.660
  14.180         62.50	     8.660
  14.200         68.33	     9.055
  14.220         60.83	     8.544
  14.240         60.83	     8.544
  14.260         47.50	     7.550
  14.280         54.17	     8.062
  14.300         54.17	     8.062
  14.320         47.50	     7.550
  14.340         43.33	     7.211
  14.360         51.67	     7.874
  14.380         49.17	     7.681
  14.400         58.33	     8.367
  14.420         48.33	     7.616
  14.440         35.00	     6.481
  14.460         60.83	     8.544
  14.480         50.00	     7.746
  14.500         46.67	     7.483
  14.520         49.17	     7.681
  14.540         46.67	     7.483
  14.560         46.67	     7.483
  14.580         47.50	     7.550
  14.600         43.33	     7.211
  14.620         46.67	     7.483
  14.640         49.17	     7.681
  14.660         47.50	     7.550
  14.680         47.50	     7.550
  14.700         40.83	     7.000
  14.720         40.83	     7.000
  14.740         38.33	     6.782
  14.760         46.67	     7.483
  14.780         38.33	     6.782
  14.800         44.17	     7.280
  14.820         45.00	     7.348
  14.840         49.17	     7.681
  14.860         47.50	     7.550
  14.880         43.33	     7.211
  14.900         35.83	     6.557
  14.920         47.50	     7.550
  14.940         49.17	     7.681
  14.960         46.67	     7.483
  14.980         38.33	     6.782
  15.000         45.00	     7.348
  15.020         47.50	     7.550
  15.040         42.50	     7.141
  15.060         41.67	     7.071
  15.080         46.67	     7.483
  15.100         55.00	     8.124
  15.120         50.83	     7.810
  15.140         59.17	     8.426
  15.160         51.67	     7.874
  15.180         57.50	     8.307
  15.200         65.00	     8.832
  15.220         44.17	     7.280
  15.240         56.67	     8.246
  15.260         50.83	     7.810
  15.280         47.50	     7.550
  15.300         46.67	     7.483
  15.320         43.33	     7.211
  15.340         46.67	     7.483
  15.360         42.50	     7.141
  15.380         50.83	     7.810
  15.400         53.33	     8.000
  15.420         43.33	     7.211
  15.440         51.67	     7.874
  15.460         41.67	     7.071
  15.480         45.83	     7.416
  15.500         42.50	     7.141
  15.520         35.83	     6.557
  15.540         35.00	     6.481
  15.560         52.50	     7.937
  15.580         40.00	     6.928
  15.600         50.83	     7.810
  15.620         37.50	     6.708
  15.640         33.33	     6.325
  15.660         47.50	     7.550
  15.680         33.33	     6.325
  15.700         41.67	     7.071
  15.720         40.83	     7.000
  15.740         50.83	     7.810
  15.760         44.17	     7.280
  15.780         54.17	     8.062
  15.800         45.83	     7.416
  15.820         36.67	     6.633
  15.840         36.67	     6.633
  15.860         43.33	     7.211
  15.880         40.00	     6.928
  15.900         53.33	     8.000
  15.920         50.00	     7.746
  15.940         35.83	     6.557
  15.960         45.83	     7.416
  15.980         40.83	     7.000
  16.000         65.00	     8.832
  16.020         50.00	     7.746
  16.040         51.67	     7.874
  16.060         44.17	     7.280
  16.080         61.67	     8.602
  16.100         44.17	     7.280
  16.120         42.50	     7.141
  16.140         43.33	     7.211
  16.160         37.50	     6.708
  16.180         45.83	     7.416
  16.200         44.17	     7.280
  16.220         46.67	     7.483
  16.240         40.83	     7.000
  16.260         40.00	     6.928
  16.280         39.17	     6.856
  16.300         45.00	     7.348
  16.320         37.50	     6.708
  16.340         45.83	     7.416
  16.360         41.67	     7.071
  16.380         42.50	     7.141
  16.400         39.17	     6.856
  16.420         39.17	     6.856
  16.440         42.50	     7.141
  16.460         50.00	     7.746
  16.480         46.67	     7.483
  16.500         42.50	     7.141
  16.520         38.33	     6.782
  16.540         39.17	     6.856
  16.560         41.67	     7.071
  16.580         40.83	     7.000
  16.600         28.33	     5.831
  16.620         37.50	     6.708
  16.640         33.33	     6.325
  16.660         47.50	     7.550
  16.680         48.33	     7.616
  16.700         37.50	     6.708
  16.720         45.83	     7.416
  16.740         44.17	     7.280
  16.760         38.33	     6.782
  16.780         34.17	     6.403
  16.800         49.17	     7.681
  16.820         42.50	     7.141
  16.840         42.50	     7.141
  16.860         31.67	     6.164
  16.880         35.83	     6.557
  16.900         32.50	     6.245
  16.920         48.33	     7.616
  16.940         42.50	     7.141
  16.960         35.83	     6.557
  16.980         41.67	     7.071
  17.000         40.83	     7.000
  17.020         35.00	     6.481
  17.040         40.00	     6.928
  17.060         40.83	     7.000
  17.080         41.67	     7.071
  17.100         37.50	     6.708
  17.120         40.00	     6.928
  17.140         35.83	     6.557
  17.160         41.67	     7.071
  17.180         50.83	     7.810
  17.200         46.67	     7.483
  17.220         41.67	     7.071
  17.240         45.00	     7.348
  17.260         40.83	     7.000
  17.280         43.33	     7.211
  17.300         30.83	     6.083
  17.320         40.83	     7.000
  17.340         40.00	     6.928
  17.360         39.17	     6.856
  17.380         38.33	     6.782
  17.400         45.00	     7.348
  17.420         38.33	     6.782
  17.440         47.50	     7.550
  17.460         37.50	     6.708
  17.480         42.50	     7.141
  17.500         35.00	     6.481
  17.520         50.83	     7.810
  17.540         51.67	     7.874
  17.560         45.00	     7.348
  17.580         40.83	     7.000
  17.600         59.17	     8.426
  17.620         51.67	     7.874
  17.640         60.83	     8.544
  17.660         45.00	     7.348
  17.680         50.83	     7.810
  17.700         54.17	     8.062
  17.720         54.17	     8.062
  17.740         60.00	     8.485
  17.760         52.50	     7.937
  17.780         47.50	     7.550
  17.800         69.17	     9.110
  17.820         59.17	     8.426
  17.840         81.67	     9.899
  17.860         90.83	    10.440
  17.880         91.67	    10.488
  17.900        115.00	    11.747
  17.920        119.17	    11.958
  17.940        158.33	    13.784
  17.960        196.67	    15.362
  17.980        223.33	    16.371
  18.000        237.50	    16.882
  18.020        230.00	    16.613
  18.040        209.17	    15.843
  18.060        146.67	    13.266
  18.080        127.50	    12.369
  18.100        107.50	    11.358
  18.120         82.50	     9.950
  18.140         80.00	     9.798
  18.160         76.67	     9.592
  18.180         61.67	     8.602
  18.200         66.67	     8.944
  18.220         65.83	     8.888
  18.240         58.33	     8.367
  18.260         66.67	     8.944
  18.280         59.17	     8.426
  18.300         64.17	     8.775
  18.320         65.00	     8.832
  18.340         50.83	     7.810
  18.360         56.67	     8.246
  18.380         61.67	     8.602
  18.400         53.33	     8.000
  18.420         45.00	     7.348
  18.440         54.17	     8.062
  18.460         50.83	     7.810
  18.480         56.67	     8.246
  18.500         54.17	     8.062
  18.520         68.33	     9.055
  18.540         55.83	     8.185
  18.560         52.50	     7.937
  18.580         67.50	     9.000
  18.600         62.50	     8.660
  18.620         62.50	     8.660
  18.640         76.67	     9.592
  18.660         81.67	     9.899
  18.680         74.17	     9.434
  18.700         79.17	     9.747
  18.720        115.83	    11.790
  18.740        103.33	    11.136
  18.760        116.67	    11.832
  18.780        119.17	    11.958
  18.800        111.67	    11.576
  18.820         97.50	    10.817
  18.840        112.50	    11.619
  18.860        111.67	    11.576
  18.880        125.00	    12.247
  18.900        161.67	    13.928
  18.920        219.17	    16.217
  18.940        199.17	    15.460
  18.960        247.50	    17.234
  18.980        278.33	    18.276
  19.000        265.83	    17.861
  19.020        217.50	    16.155
  19.040        170.83	    14.318
  19.060        101.67	    11.045
  19.080         87.50	    10.247
  19.100         90.83	    10.440
  19.120         88.33	    10.296
  19.140         77.50	     9.644
  19.160         61.67	     8.602
  19.180         55.83	     8.185
  19.200         69.17	     9.110
  19.220         60.00	     8.485
  19.240         58.33	     8.367
  19.260         45.00	     7.348
  19.280         53.33	     8.000
  19.300         60.83	     8.544
  19.320         56.67	     8.246
  19.340         64.17	     8.775
  19.360         68.33	     9.055
  19.380         60.83	     8.544
  19.400         60.83	     8.544
  19.420         53.33	     8.000
  19.440         66.67	     8.944
  19.460         63.33	     8.718
  19.480         58.33	     8.367
  19.500         59.17	     8.426
  19.520         72.50	     9.327
  19.540         51.67	     7.874
  19.560         63.33	     8.718
  19.580         60.00	     8.485
  19.600         67.50	     9.000
  19.620         60.00	     8.485
  19.640         62.50	     8.660
  19.660         59.17	     8.426
  19.680         59.17	     8.426
  19.700         60.83	     8.544
  19.720         45.83	     7.416
  19.740         65.00	     8.832
  19.760         69.17	     9.110
  19.780         65.00	     8.832
  19.800         77.50	     9.644
  19.820         87.50	    10.247
  19.840         84.17	    10.050
  19.860         77.50	     9.644
  19.880         98.33	    10.863
  19.900         86.67	    10.198
  19.920         88.33	    10.296
  19.940        100.83	    11.000
  19.960         95.00	    10.677
  19.980         94.17	    10.630
  20.000         98.33	    10.863
  20.020         90.83	    10.440
  20.040         93.33	    10.583
  20.060         91.67	    10.488
  20.080         79.17	     9.747
  20.100         72.50	     9.327
  20.120         90.00	    10.392
  20.140         78.33	     9.695
  20.160         77.50	     9.644
  20.180         72.50	     9.327
  20.200         54.17	     8.062
  20.220         54.17	     8.062
  20.240         50.00	     7.746
  20.260         53.33	     8.000
  20.280         60.00	     8.485
  20.300         44.17	     7.280
  20.320         67.50	     9.000
  20.340         52.50	     7.937
  20.360         62.50	     8.660
  20.380         55.00	     8.124
  20.400         56.67	     8.246
  20.420         53.33	     8.000
  20.440         60.00	     8.485
  20.460         53.33	     8.000
  20.480         47.50	     7.550
  20.500         56.67	     8.246
  20.520         47.50	     7.550
  20.540         42.50	     7.141
  20.560         65.83	     8.888
  20.580         55.00	     8.124
  20.600         55.00	     8.124
  20.620         53.33	     8.000
  20.640         39.17	     6.856
  20.660         45.00	     7.348
  20.680         53.33	     8.000
  20.700         59.17	     8.426
  20.720         37.50	     6.708
  20.740         54.17	     8.062
  20.760         49.17	     7.681
  20.780         45.83	     7.416
  20.800         67.50	     9.000
  20.820         59.17	     8.426
  20.840         65.83	     8.888
  20.860         63.33	     8.718
  20.880         63.33	     8.718
  20.900         67.50	     9.000
  20.920         53.33	     8.000
  20.940         88.33	    10.296
  20.960         87.50	    10.247
  20.980        134.17	    12.689
  21.000        185.83	    14.933
  21.020        226.67	    16.492
  21.040        261.67	    17.720
  21.060        235.83	    16.823
  21.080        219.17	    16.217
  21.100        196.67	    15.362
  21.120        130.83	    12.530
  21.140        121.67	    12.083
  21.160         99.17	    10.909
  21.180        107.50	    11.358
  21.200        117.50	    11.874
  21.220         92.50	    10.536
  21.240         87.50	    10.247
  21.260         77.50	     9.644
  21.280         79.17	     9.747
  21.300         76.67	     9.592
  21.320         67.50	     9.000
  21.340         57.50	     8.307
  21.360         57.50	     8.307
  21.380         55.00	     8.124
  21.400         52.50	     7.937
  21.420         50.00	     7.746
  21.440         61.67	     8.602
  21.460         60.83	     8.544
  21.480         45.83	     7.416
  21.500         50.83	     7.810
  21.520         49.17	     7.681
  21.540         45.83	     7.416
  21.560         46.67	     7.483
  21.580         48.33	     7.616
  21.600         39.17	     6.856
  21.620         35.83	     6.557
  21.640         49.17	     7.681
  21.660         49.17	     7.681
  21.680         56.67	     8.246
  21.700         50.00	     7.746
  21.720         61.67	     8.602
  21.740         46.67	     7.483
  21.760         66.67	     8.944
  21.780         55.00	     8.124
  21.800         50.83	     7.810
  21.820         58.33	     8.367
  21.840         40.83	     7.000
  21.860         47.50	     7.550
  21.880         47.50	     7.550
  21.900         46.67	     7.483
  21.920         54.17	     8.062
  21.940         45.00	     7.348
  21.960         52.50	     7.937
  21.980         55.83	     8.185
  22.000         44.17	     7.280
  22.020         65.00	     8.832
  22.040         55.00	     8.124
  22.060         55.83	     8.185
  22.080         75.83	     9.539
  22.100         75.00	     9.487
  22.120         86.67	    10.198
  22.140         98.33	    10.863
  22.160        143.33	    13.115
  22.180        190.83	    15.133
  22.200        280.00	    18.330
  22.220        284.17	    18.466
  22.240        289.17	    18.628
  22.260        251.67	    17.378
  22.280        185.83	    14.933
  22.300        155.83	    13.675
  22.320         98.33	    10.863
  22.340         85.83	    10.149
  22.360         83.33	    10.000
  22.380         63.33	     8.718
  22.400         64.17	     8.775
  22.420         72.50	     9.327
  22.440         65.00	     8.832
  22.460         75.00	     9.487
  22.480         73.33	     9.381
  22.500         79.17	     9.747
  22.520         71.67	     9.274
  22.540         62.50	     8.660
  22.560         57.50	     8.307
  22.580         70.83	     9.220
  22.600         45.00	     7.348
  22.620         61.67	     8.602
  22.640         65.83	     8.888
  22.660         63.33	     8.718
  22.680         73.33	     9.381
  22.700         68.33	     9.055
  22.720         49.17	     7.681
  22.740         52.50	     7.937
  22.760         50.83	     7.810
  22.780         59.17	     8.426
  22.800         59.17	     8.426
  22.820         60.83	     8.544
  22.840         50.00	     7.746
  22.860         60.00	     8.485
  22.880         48.33	     7.616
  22.900         58.33	     8.367
  22.920         55.00	     8.124
  22.940         57.50	     8.307
  22.960         68.33	     9.055
  22.980         58.33	     8.367
  23.000         63.33	     8.718
  23.020         90.00	    10.392
  23.040         80.83	     9.849
  23.060        114.17	    11.705
  23.080        107.50	    11.358
  23.100        112.50	    11.619
  23.120         99.17	    10.909
  23.140         95.83	    10.724
  23.160         85.00	    10.100
  23.180         85.83	    10.149
  23.200        108.33	    11.402
  23.220        100.83	    11.000
  23.240        115.83	    11.790
  23.260         95.83	    10.724
  23.280         80.83	     9.849
  23.300         86.67	    10.198
  23.320         71.67	     9.274
  23.340         62.50	     8.660
  23.360         50.00	     7.746
  23.380         50.83	     7.810
  23.400         48.33	     7.616
  23.420         57.50	     8.307
  23.440         54.17	     8.062
  23.460         75.83	     9.539
  23.480         45.83	     7.416
  23.500         67.50	     9.000
  23.520         64.17	     8.775
  23.540         41.67	     7.071
  23.560         62.50	     8.660
  23.580         67.50	     9.000
  23.600         54.17	     8.062
  23.620         81.67	     9.899
  23.640        106.67	    11.314
  23.660        105.00	    11.225
  23.680        156.67	    13.711
  23.700        176.67	    14.560
  23.720        195.00	    15.297
  23.740        200.83	    15.524
  23.760        183.33	    14.832
  23.780        166.67	    14.142
  23.800        157.50	    13.748
  23.820        126.67	    12.329
  23.840        106.67	    11.314
  23.860        110.00	    11.489
  23.880         96.67	    10.770
  23.900         91.67	    10.488
  23.920         86.67	    10.198
  23.940         82.50	     9.950
  23.960         95.00	    10.677
  23.980        103.33	    11.136
  24.000         97.50	    10.817
  24.020         95.00	    10.677
  24.040         91.67	    10.488
  24.060         95.83	    10.724
  24.080         90.00	    10.392
  24.100        113.33	    11.662
  24.120         74.17	     9.434
  24.140         91.67	    10.488
  24.160         82.50	     9.950
  24.180         86.67	    10.198
  24.200        103.33	    11.136
  24.220         98.33	    10.863
  24.240         99.17	    10.909
  24.260        117.50	    11.874
  24.280        115.83	    11.790
  24.300        115.83	    11.790
  24.320        120.83	    12.042
  24.340        140.00	    12.961
  24.360        131.67	    12.570
  24.380        139.17	    12.923
  24.400        147.50	    13.304
  24.420        168.33	    14.213
  24.440        183.33	    14.832
  24.460        161.67	    13.928
  24.480        202.50	    15.588
  24.500        171.67	    14.353
  24.520        157.50	    13.748
  24.540        136.67	    12.806
  24.560        145.83	    13.229
  24.580        121.67	    12.083
  24.600        126.67	    12.329
  24.620        132.50	    12.610
  24.640        145.00	    13.191
  24.660        170.00	    14.283
  24.680        214.17	    16.031
  24.700        275.83	    18.193
  24.720        376.67	    21.260
  24.740        467.50	    23.685
  24.760        484.17	    24.104
  24.780        534.17	    25.318
  24.800        542.50	    25.515
  24.820        540.83	    25.475
  24.840        532.50	    25.278
  24.860        454.17	    23.345
  24.880        437.50	    22.913
  24.900        358.33	    20.736
  24.920        275.83	    18.193
  24.940        264.17	    17.804
  24.960        240.83	    17.000
  24.980        210.00	    15.875
  25.000        200.00	    15.492
  25.020        201.67	    15.556
  25.040        198.33	    15.427
  25.060        196.67	    15.362
  25.080        182.50	    14.799
  25.100        175.00	    14.491
  25.120        150.83	    13.454
  25.140        160.83	    13.892
  25.160        155.83	    13.675
  25.180        172.50	    14.387
  25.200        180.00	    14.697
  25.220        210.83	    15.906
  25.240        269.17	    17.972
  25.260        315.83	    19.468
  25.280        333.33	    20.000
  25.300        440.83	    23.000
  25.320        492.50	    24.310
  25.340        470.00	    23.749
  25.360        417.50	    22.383
  25.380        378.33	    21.307
  25.400        351.67	    20.543
  25.420        276.67	    18.221
  25.440        216.67	    16.125
  25.460        165.00	    14.071
  25.480        145.00	    13.191
  25.500        153.33	    13.565
  25.520        150.83	    13.454
  25.540        145.00	    13.191
  25.560        150.83	    13.454
  25.580        146.67	    13.266
  25.600        153.33	    13.565
  25.620        174.17	    14.457
  25.640        169.17	    14.248
  25.660        196.67	    15.362
  25.680        210.00	    15.875
  25.700        195.83	    15.330
  25.720        221.67	    16.310
  25.740        205.00	    15.684
  25.760        185.83	    14.933
  25.780        174.17	    14.457
  25.800        170.83	    14.318
  25.820        144.17	    13.153
  25.840        140.00	    12.961
  25.860        131.67	    12.570
  25.880        123.33	    12.166
  25.900        125.00	    12.247
  25.920        124.17	    12.207
  25.940        100.83	    11.000
  25.960        107.50	    11.358
  25.980         91.67	    10.488
  26.000         84.17	    10.050
  26.020         82.50	     9.950
  26.040         80.00	     9.798
  26.060         66.67	     8.944
  26.080         76.67	     9.592
  26.100         60.83	     8.544
  26.120        101.67	    11.045
  26.140         83.33	    10.000
  26.160         78.33	     9.695
  26.180         83.33	    10.000
  26.200         90.83	    10.440
  26.220         71.67	     9.274
  26.240         99.17	    10.909
  26.260         95.83	    10.724
  26.280         81.67	     9.899
  26.300         91.67	    10.488
  26.320         80.83	     9.849
  26.340        107.50	    11.358
  26.360        106.67	    11.314
  26.380         94.17	    10.630
  26.400        105.83	    11.269
  26.420        108.33	    11.402
  26.440        127.50	    12.369
  26.460        136.67	    12.806
  26.480        147.50	    13.304
  26.500        173.33	    14.422
  26.520        183.33	    14.832
  26.540        175.00	    14.491
  26.560        217.50	    16.155
  26.580        195.00	    15.297
  26.600        235.83	    16.823
  26.620        253.33	    17.436
  26.640        254.17	    17.464
  26.660        260.00	    17.664
  26.680        258.33	    17.607
  26.700        270.00	    18.000
  26.720        348.33	    20.445
  26.740        373.33	    21.166
  26.760        544.17	    25.554
  26.780        846.67	    31.875
  26.800       1220.00	    38.262
  26.820       1270.83	    39.051
  26.840       1135.00	    36.905
  26.860        975.00	    34.205
  26.880        915.00	    33.136
  26.900        769.17	    30.381
  26.920        560.83	    25.942
  26.940        481.67	    24.042
  26.960        487.50	    24.187
  26.980        495.00	    24.372
  27.000        544.17	    25.554
  27.020        626.67	    27.423
  27.040        646.67	    27.857
  27.060        588.33	    26.571
  27.080        590.83	    26.627
  27.100        524.17	    25.080
  27.120        422.50	    22.517
  27.140        370.00	    21.071
  27.160        269.17	    17.972
  27.180        211.67	    15.937
  27.200        187.50	    15.000
  27.220        187.50	    15.000
  27.240        157.50	    13.748
  27.260        150.00	    13.416
  27.280        132.50	    12.610
  27.300        129.17	    12.450
  27.320        125.00	    12.247
  27.340        105.00	    11.225
  27.360        126.67	    12.329
  27.380        109.17	    11.446
  27.400         98.33	    10.863
  27.420         98.33	    10.863
  27.440         99.17	    10.909
  27.460        108.33	    11.402
  27.480        119.17	    11.958
  27.500        125.00	    12.247
  27.520        111.67	    11.576
  27.540         85.83	    10.149
  27.560        119.17	    11.958
  27.580        123.33	    12.166
  27.600        103.33	    11.136
  27.620        157.50	    13.748
  27.640        210.00	    15.875
  27.660        237.50	    16.882
  27.680        276.67	    18.221
  27.700        247.50	    17.234
  27.720        221.67	    16.310
  27.740        203.33	    15.620
  27.760        171.67	    14.353
  27.780        179.17	    14.663
  27.800        137.50	    12.845
  27.820        136.67	    12.806
  27.840        131.67	    12.570
  27.860        183.33	    14.832
  27.880        230.83	    16.643
  27.900        263.33	    17.776
  27.920        280.00	    18.330
  27.940        280.83	    18.358
  27.960        330.00	    19.900
  27.980        311.67	    19.339
  28.000        302.50	    19.053
  28.020        340.83	    20.224
  28.040        379.17	    21.331
  28.060        526.67	    25.140
  28.080        579.17	    26.363
  28.100        556.67	    25.846
  28.120        558.33	    25.884
  28.140        557.50	    25.865
  28.160        450.83	    23.259
  28.180        385.83	    21.517
  28.200        321.67	    19.647
  28.220        235.83	    16.823
  28.240        176.67	    14.560
  28.260        182.50	    14.799
  28.280        167.50	    14.177
  28.300        166.67	    14.142
  28.320        180.00	    14.697
  28.340        160.83	    13.892
  28.360        145.83	    13.229
  28.380        131.67	    12.570
  28.400        178.33	    14.629
  28.420        146.67	    13.266
  28.440        145.00	    13.191
  28.460        150.00	    13.416
  28.480        148.33	    13.342
  28.500        182.50	    14.799
  28.520        170.00	    14.283
  28.540        130.83	    12.530
  28.560        124.17	    12.207
  28.580        150.00	    13.416
  28.600        105.00	    11.225
  28.620         98.33	    10.863
  28.640         84.17	    10.050
  28.660         88.33	    10.296
  28.680        119.17	    11.958
  28.700        115.00	    11.747
  28.720        161.67	    13.928
  28.740        153.33	    13.565
  28.760        215.83	    16.093
  28.780        210.83	    15.906
  28.800        224.17	    16.401
  28.820        197.50	    15.395
  28.840        195.00	    15.297
  28.860        202.50	    15.588
  28.880        188.33	    15.033
  28.900        163.33	    14.000
  28.920        155.00	    13.638
  28.940        128.33	    12.410
  28.960        138.33	    12.884
  28.980        145.00	    13.191
  29.000        105.83	    11.269
  29.020        106.67	    11.314
  29.040         89.17	    10.344
  29.060         73.33	     9.381
  29.080         57.50	     8.307
  29.100         60.00	     8.485
  29.120         68.33	     9.055
  29.140         54.17	     8.062
  29.160         51.67	     7.874
  29.180         52.50	     7.937
  29.200         50.83	     7.810
  29.220         54.17	     8.062
  29.240         70.00	     9.165
  29.260         41.67	     7.071
  29.280         64.17	     8.775
  29.300         49.17	     7.681
  29.320         55.83	     8.185
  29.340         43.33	     7.211
  29.360         50.00	     7.746
  29.380         48.33	     7.616
  29.400         55.00	     8.124
  29.420         69.17	     9.110
  29.440         46.67	     7.483
  29.460         54.17	     8.062
  29.480         52.50	     7.937
  29.500         39.17	     6.856
  29.520         56.67	     8.246
  29.540         60.83	     8.544
  29.560         45.83	     7.416
  29.580         45.00	     7.348
  29.600         58.33	     8.367
  29.620         49.17	     7.681
  29.640         63.33	     8.718
  29.660         51.67	     7.874
  29.680         50.00	     7.746
  29.700         59.17	     8.426
  29.720         55.00	     8.124
  29.740         63.33	     8.718
  29.760         59.17	     8.426
  29.780         53.33	     8.000
  29.800         46.67	     7.483
  29.820         51.67	     7.874
  29.840         50.00	     7.746
  29.860         76.67	     9.592
  29.880         66.67	     8.944
  29.900        100.83	    11.000
  29.920        130.83	    12.530
  29.940        163.33	    14.000
  29.960        147.50	    13.304
  29.980        143.33	    13.115
  30.000        146.67	    13.266
  30.020        199.17	    15.460
  30.040        200.00	    15.492
  30.060        180.00	    14.697
  30.080        183.33	    14.832
  30.100        187.50	    15.000
  30.120        166.67	    14.142
  30.140        151.67	    13.491
  30.160        125.00	    12.247
  30.180        122.50	    12.124
  30.200        143.33	    13.115
  30.220        105.00	    11.225
  30.240        117.50	    11.874
  30.260        122.50	    12.124
  30.280        120.83	    12.042
  30.300        121.67	    12.083
  30.320        122.50	    12.124
  30.340        122.50	    12.124
  30.360        122.50	    12.124
  30.380        101.67	    11.045
  30.400        138.33	    12.884
  30.420        129.17	    12.450
  30.440        132.50	    12.610
  30.460        114.17	    11.705
  30.480        128.33	    12.410
  30.500        130.00	    12.490
  30.520        113.33	    11.662
  30.540        144.17	    13.153
  30.560        123.33	    12.166
  30.580        132.50	    12.610
  30.600        130.00	    12.490
  30.620        121.67	    12.083
  30.640        162.50	    13.964
  30.660        153.33	    13.565
  30.680        141.67	    13.038
  30.700         90.83	    10.440
  30.720        119.17	    11.958
  30.740         88.33	    10.296
  30.760         86.67	    10.198
  30.780         74.17	     9.434
  30.800         70.00	     9.165
  30.820         67.50	     9.000
  30.840         80.00	     9.798
  30.860         76.67	     9.592
  30.880         71.67	     9.274
  30.900         75.00	     9.487
  30.920         82.50	     9.950
  30.940         64.17	     8.775
  30.960        102.50	    11.091
  30.980         81.67	     9.899
  31.000         84.17	    10.050
  31.020        121.67	    12.083
  31.040         94.17	    10.630
  31.060        109.17	    11.446
  31.080         92.50	    10.536
  31.100         85.83	    10.149
  31.120         85.83	    10.149
  31.140         81.67	     9.899
  31.160         78.33	     9.695
  31.180         75.83	     9.539
  31.200         94.17	    10.630
  31.220         86.67	    10.198
  31.240         95.83	    10.724
  31.260         92.50	    10.536
  31.280         99.17	    10.909
  31.300        100.83	    11.000
  31.320        104.17	    11.180
  31.340        102.50	    11.091
  31.360        139.17	    12.923
  31.380        155.83	    13.675
  31.400        141.67	    13.038
  31.420        175.00	    14.491
  31.440        184.17	    14.866
  31.460        148.33	    13.342
  31.480        145.83	    13.229
  31.500        125.00	    12.247
  31.520        126.67	    12.329
  31.540        112.50	    11.619
  31.560        105.00	    11.225
  31.580         93.33	    10.583
  31.600        111.67	    11.576
  31.620         96.67	    10.770
  31.640        100.83	    11.000
  31.660         91.67	    10.488
  31.680         99.17	    10.909
  31.700        120.83	    12.042
  31.720        110.83	    11.533
  31.740        135.00	    12.728
  31.760        117.50	    11.874
  31.780        124.17	    12.207
  31.800        100.83	    11.000
  31.820        104.17	    11.180
  31.840         97.50	    10.817
  31.860         85.00	    10.100
  31.880         75.83	     9.539
  31.900         85.00	    10.100
  31.920         64.17	     8.775
  31.940         68.33	     9.055
  31.960         60.00	     8.485
  31.980         53.33	     8.000
  32.000         62.50	     8.660
  32.020         75.00	     9.487
  32.040         81.67	     9.899
  32.060         84.17	    10.050
  32.080         72.50	     9.327
  32.100         70.00	     9.165
  32.120         77.50	     9.644
  32.140         94.17	    10.630
  32.160         92.50	    10.536
  32.180         76.67	     9.592
  32.200         90.00	    10.392
  32.220        116.67	    11.832
  32.240         80.00	     9.798
  32.260        105.00	    11.225
  32.280        105.00	    11.225
  32.300         77.50	     9.644
  32.320         85.00	    10.100
  32.340        106.67	    11.314
  32.360        102.50	    11.091
  32.380         94.17	    10.630
  32.400         80.00	     9.798
  32.420         75.83	     9.539
  32.440         69.17	     9.110
  32.460         70.83	     9.220
  32.480         71.67	     9.274
  32.500         54.17	     8.062
  32.520         58.33	     8.367
  32.540         63.33	     8.718
  32.560         47.50	     7.550
  32.580         52.50	     7.937
  32.600         46.67	     7.483
  32.620         50.00	     7.746
  32.640         45.00	     7.348
  32.660         47.50	     7.550
  32.680         49.17	     7.681
  32.700         48.33	     7.616
  32.720         42.50	     7.141
  32.740         46.67	     7.483
  32.760         34.17	     6.403
  32.780         49.17	     7.681
  32.800         40.83	     7.000
  32.820         40.83	     7.000
  32.840         45.83	     7.416
  32.860         53.33	     8.000
  32.880         45.83	     7.416
  32.900         43.33	     7.211
  32.920         57.50	     8.307
  32.940         45.83	     7.416
  32.960         51.67	     7.874
  32.980         54.17	     8.062
  33.000         45.83	     7.416
  33.020         53.33	     8.000
  33.040         64.17	     8.775
  33.060         52.50	     7.937
  33.080         63.33	     8.718
  33.100         63.33	     8.718
  33.120         58.33	     8.367
  33.140         53.33	     8.000
  33.160         80.00	     9.798
  33.180         92.50	    10.536
  33.200         79.17	     9.747
  33.220        112.50	    11.619
  33.240        135.83	    12.767
  33.260        138.33	    12.884
  33.280        133.33	    12.649
  33.300        115.00	    11.747
  33.320         94.17	    10.630
  33.340         95.00	    10.677
  33.360         73.33	     9.381
  33.380         60.00	     8.485
  33.400         65.83	     8.888
  33.420         73.33	     9.381
  33.440         44.17	     7.280
  33.460         59.17	     8.426
  33.480         54.17	     8.062
  33.500         44.17	     7.280
  33.520         46.67	     7.483
  33.540         57.50	     8.307
  33.560         59.17	     8.426
  33.580         60.83	     8.544
  33.600         49.17	     7.681
  33.620         60.00	     8.485
  33.640         40.83	     7.000
  33.660         56.67	     8.246
  33.680         62.50	     8.660
  33.700         49.17	     7.681
  33.720         47.50	     7.550
  33.740         48.33	     7.616
  33.760         60.83	     8.544
  33.780         48.33	     7.616
  33.800         55.83	     8.185
  33.820         44.17	     7.280
  33.840         69.17	     9.110
  33.860         47.50	     7.550
  33.880         47.50	     7.550
  33.900         46.67	     7.483
  33.920         40.00	     6.928
  33.940         50.83	     7.810
  33.960         56.67	     8.246
  33.980         50.83	     7.810
  34.000         65.00	     8.832
  34.020         61.67	     8.602
  34.040         54.17	     8.062
  34.060         55.83	     8.185
  34.080         65.83	     8.888
  34.100         80.83	     9.849
  34.120         81.67	     9.899
  34.140         77.50	     9.644
  34.160         79.17	     9.747
  34.180         69.17	     9.110
  34.200         77.50	     9.644
  34.220         68.33	     9.055
  34.240         69.17	     9.110
  34.260         74.17	     9.434
  34.280         72.50	     9.327
  34.300         62.50	     8.660
  34.320         74.17	     9.434
  34.340         78.33	     9.695
  34.360         75.00	     9.487
  34.380         62.50	     8.660
  34.400         66.67	     8.944
  34.420         57.50	     8.307
  34.440         62.50	     8.660
  34.460         80.83	     9.849
  34.480         68.33	     9.055
  34.500         89.17	    10.344
  34.520         99.17	    10.909
  34.540        105.83	    11.269
  34.560         86.67	    10.198
  34.580         95.00	    10.677
  34.600        101.67	    11.045
  34.620        121.67	    12.083
  34.640        108.33	    11.402
  34.660        121.67	    12.083
  34.680        118.33	    11.916
  34.700        122.50	    12.124
  34.720        122.50	    12.124
  34.740        138.33	    12.884
  34.760        136.67	    12.806
  34.780        120.00	    12.000
  34.800        144.17	    13.153
  34.820        102.50	    11.091
  34.840        110.00	    11.489
  34.860        115.83	    11.790
  34.880         99.17	    10.909
  34.900        100.83	    11.000
  34.920         96.67	    10.770
  34.940         96.67	    10.770
  34.960         91.67	    10.488
  34.980         82.50	     9.950
  35.000        121.67	    12.083
  35.020        130.83	    12.530
  35.040        135.00	    12.728
  35.060        136.67	    12.806
  35.080        109.17	    11.446
  35.100        138.33	    12.884
  35.120        167.50	    14.177
  35.140        135.83	    12.767
  35.160        135.83	    12.767
  35.180        169.17	    14.248
  35.200        160.00	    13.856
  35.220        125.00	    12.247
  35.240        155.83	    13.675
  35.260        138.33	    12.884
  35.280        135.83	    12.767
  35.300        110.83	    11.533
  35.320        120.83	    12.042
  35.340        125.83	    12.288
  35.360         95.00	    10.677
  35.380        115.83	    11.790
  35.400        102.50	    11.091
  35.420        105.83	    11.269
  35.440        105.00	    11.225
  35.460        132.50	    12.610
  35.480        148.33	    13.342
  35.500        166.67	    14.142
  35.520        148.33	    13.342
  35.540        128.33	    12.410
  35.560        133.33	    12.649
  35.580        150.83	    13.454
  35.600        146.67	    13.266
  35.620        150.00	    13.416
  35.640        150.83	    13.454
  35.660        150.00	    13.416
  35.680        175.83	    14.526
  35.700        197.50	    15.395
  35.720        225.83	    16.462
  35.740        165.00	    14.071
  35.760        172.50	    14.387
  35.780        185.00	    14.900
  35.800        188.33	    15.033
  35.820        162.50	    13.964
  35.840        165.83	    14.107
  35.860        125.83	    12.288
  35.880        122.50	    12.124
  35.900        106.67	    11.314
  35.920        114.17	    11.705
  35.940        105.00	    11.225
  35.960         72.50	     9.327
  35.980         78.33	     9.695
  36.000         85.83	    10.149
  36.020         64.17	     8.775
  36.040         65.00	     8.832
  36.060         70.83	     9.220
  36.080         75.83	     9.539
  36.100         87.50	    10.247
  36.120         75.83	     9.539
  36.140         75.83	     9.539
  36.160         64.17	     8.775
  36.180         84.17	    10.050
  36.200         82.50	     9.950
  36.220         86.67	    10.198
  36.240         96.67	    10.770
  36.260         91.67	    10.488
  36.280         80.83	     9.849
  36.300         85.00	    10.100
  36.320         84.17	    10.050
  36.340         77.50	     9.644
  36.360         70.00	     9.165
  36.380         65.00	     8.832
  36.400         67.50	     9.000
  36.420         70.00	     9.165
  36.440         61.67	     8.602
  36.460         41.67	     7.071
  36.480         45.83	     7.416
  36.500         57.50	     8.307
  36.520         61.67	     8.602
  36.540         62.50	     8.660
  36.560         66.67	     8.944
  36.580         54.17	     8.062
  36.600         75.00	     9.487
  36.620         83.33	    10.000
  36.640         84.17	    10.050
  36.660        107.50	    11.358
  36.680        128.33	    12.410
  36.700        148.33	    13.342
  36.720        149.17	    13.379
  36.740        174.17	    14.457
  36.760        128.33	    12.410
  36.780        139.17	    12.923
  36.800        125.83	    12.288
  36.820        135.83	    12.767
  36.840        130.83	    12.530
  36.860        109.17	    11.446
  36.880         98.33	    10.863
  36.900        113.33	    11.662
  36.920        108.33	    11.402
  36.940         85.83	    10.149
  36.960        101.67	    11.045
  36.980        104.17	    11.180
  37.000         85.00	    10.100
  37.020         74.17	     9.434
  37.040         76.67	     9.592
  37.060         69.17	     9.110
  37.080         67.50	     9.000
  37.100         59.17	     8.426
  37.120         70.83	     9.220
  37.140         71.67	     9.274
  37.160         65.00	     8.832
  37.180         80.00	     9.798
  37.200         53.33	     8.000
  37.220         70.83	     9.220
  37.240         56.67	     8.246
  37.260         69.17	     9.110
  37.280         60.00	     8.485
  37.300         69.17	     9.110
  37.320         84.17	    10.050
  37.340         95.00	    10.677
  37.360         74.17	     9.434
  37.380         67.50	     9.000
  37.400         75.00	     9.487
  37.420         74.17	     9.434
  37.440         77.50	     9.644
  37.460         75.00	     9.487
  37.480         94.17	    10.630
  37.500         90.00	    10.392
  37.520         70.00	     9.165
  37.540         65.83	     8.888
  37.560         81.67	     9.899
  37.580         98.33	    10.863
  37.600         82.50	     9.950
  37.620         95.00	    10.677
  37.640         95.83	    10.724
  37.660         87.50	    10.247
  37.680         90.00	    10.392
  37.700         86.67	    10.198
  37.720         95.83	    10.724
  37.740         96.67	    10.770
  37.760        105.83	    11.269
  37.780        111.67	    11.576
  37.800        111.67	    11.576
  37.820        116.67	    11.832
  37.840        103.33	    11.136
  37.860        100.83	    11.000
  37.880        114.17	    11.705
  37.900         80.83	     9.849
  37.920        105.83	    11.269
  37.940        105.00	    11.225
  37.960         92.50	    10.536
  37.980         68.33	     9.055
  38.000         78.33	     9.695
  38.020         58.33	     8.367
  38.040         70.83	     9.220
  38.060         60.83	     8.544
  38.080         61.67	     8.602
  38.100         55.00	     8.124
  38.120         57.50	     8.307
  38.140         42.50	     7.141
  38.160         45.83	     7.416
  38.180         57.50	     8.307
  38.200         41.67	     7.071
  38.220         43.33	     7.211
  38.240         39.17	     6.856
  38.260         42.50	     7.141
  38.280         34.17	     6.403
  38.300         40.00	     6.928
  38.320         28.33	     5.831
  38.340         33.33	     6.325
  38.360         36.67	     6.633
  38.380         33.33	     6.325
  38.400         32.50	     6.245
  38.420         46.67	     7.483
  38.440         37.50	     6.708
  38.460         44.17	     7.280
  38.480         50.00	     7.746
  38.500         36.67	     6.633
  38.520         33.33	     6.325
  38.540         37.50	     6.708
  38.560         43.33	     7.211
  38.580         45.00	     7.348
  38.600         45.83	     7.416
  38.620         52.50	     7.937
  38.640         56.67	     8.246
  38.660         65.00	     8.832
  38.680         59.17	     8.426
  38.700         51.67	     7.874
  38.720         77.50	     9.644
  38.740         56.67	     8.246
  38.760         76.67	     9.592
  38.780         75.00	     9.487
  38.800         79.17	     9.747
  38.820         68.33	     9.055
  38.840         60.00	     8.485
  38.860         65.00	     8.832
  38.880         50.83	     7.810
  38.900         73.33	     9.381
  38.920         56.67	     8.246
  38.940         63.33	     8.718
  38.960         64.17	     8.775
  38.980         56.67	     8.246
  39.000         72.50	     9.327
  39.020         50.83	     7.810
  39.040         55.83	     8.185
  39.060         58.33	     8.367
  39.080         48.33	     7.616
  39.100         65.00	     8.832
  39.120         55.00	     8.124
  39.140         49.17	     7.681
  39.160         50.83	     7.810
  39.180         32.50	     6.245
  39.200         55.83	     8.185
  39.220         37.50	     6.708
  39.240         55.00	     8.124
  39.260         50.83	     7.810
  39.280         40.83	     7.000
  39.300         50.00	     7.746
  39.320         59.17	     8.426
  39.340         58.33	     8.367
  39.360         42.50	     7.141
  39.380         51.67	     7.874
  39.400         50.00	     7.746
  39.420         48.33	     7.616
  39.440         46.67	     7.483
  39.460         50.00	     7.746
  39.480         46.67	     7.483
  39.500         46.67	     7.483
  39.520         44.17	     7.280
  39.540         46.67	     7.483
  39.560         57.50	     8.307
  39.580         75.83	     9.539
  39.600        100.00	    10.954
  39.620        140.00	    12.961
  39.640        132.50	    12.610
  39.660        125.83	    12.288
  39.680        100.00	    10.954
  39.700         84.17	    10.050
  39.720         90.00	    10.392
  39.740        100.00	    10.954
  39.760         95.83	    10.724
  39.780         80.83	     9.849
  39.800         92.50	    10.536
  39.820         77.50	     9.644
  39.840         63.33	     8.718
  39.860         64.17	     8.775
  39.880         63.33	     8.718
  39.900         81.67	     9.899
  39.920         48.33	     7.616
  39.940         75.83	     9.539
  39.960         55.83	     8.185
  39.980         46.67	     7.483
  40.000         60.00	     8.485
  40.020         58.33	     8.367
  40.040         53.33	     8.000
  40.060         66.67	     8.944
  40.080         59.17	     8.426
  40.100         51.67	     7.874
  40.120         66.67	     8.944
  40.140         62.50	     8.660
  40.160         55.00	     8.124
  40.180         52.50	     7.937
  40.200         47.50	     7.550
  40.220         60.00	     8.485
  40.240         53.33	     8.000
  40.260         45.83	     7.416
  40.280         62.50	     8.660
  40.300         46.67	     7.483
  40.320         36.67	     6.633
  40.340         61.67	     8.602
  40.360         53.33	     8.000
  40.380         52.50	     7.937
  40.400         50.83	     7.810
  40.420         83.33	    10.000
  40.440         78.33	     9.695
  40.460         80.00	     9.798
  40.480         76.67	     9.592
  40.500         91.67	    10.488
  40.520         75.83	     9.539
  40.540         61.67	     8.602
  40.560         70.83	     9.220
  40.580         60.83	     8.544
  40.600         55.83	     8.185
  40.620         54.17	     8.062
  40.640         48.33	     7.616
  40.660         54.17	     8.062
  40.680         50.00	     7.746
  40.700         46.67	     7.483
  40.720         50.00	     7.746
  40.740         49.17	     7.681
  40.760         55.00	     8.124
  40.780         39.17	     6.856
  40.800         46.67	     7.483
  40.820         41.67	     7.071
  40.840         50.83	     7.810
  40.860         45.83	     7.416
  40.880         39.17	     6.856
  40.900         45.00	     7.348
  40.920         46.67	     7.483
  40.940         38.33	     6.782
  40.960         52.50	     7.937
  40.980         50.83	     7.810
  41.000         46.67	     7.483
  41.020         53.33	     8.000
  41.040         61.67	     8.602
  41.060         48.33	     7.616
  41.080         45.00	     7.348
  41.100         54.17	     8.062
  41.120         46.67	     7.483
  41.140         48.33	     7.616
  41.160         33.33	     6.325
  41.180         34.17	     6.403
  41.200         56.67	     8.246
  41.220         45.83	     7.416
  41.240         58.33	     8.367
  41.260         43.33	     7.211
  41.280         48.33	     7.616
  41.300         46.67	     7.483
  41.320         38.33	     6.782
  41.340         46.67	     7.483
  41.360         61.67	     8.602
  41.380         59.17	     8.426
  41.400         50.83	     7.810
  41.420         59.17	     8.426
  41.440         65.83	     8.888
  41.460         45.00	     7.348
  41.480         64.17	     8.775
  41.500         65.00	     8.832
  41.520         40.83	     7.000
  41.540         47.50	     7.550
  41.560         58.33	     8.367
  41.580         61.67	     8.602
  41.600         66.67	     8.944
  41.620         56.67	     8.246
  41.640         53.33	     8.000
  41.660         44.17	     7.280
  41.680         52.50	     7.937
  41.700         63.33	     8.718
  41.720         57.50	     8.307
  41.740         58.33	     8.367
  41.760         60.00	     8.485
  41.780         64.17	     8.775
  41.800         79.17	     9.747
  41.820         78.33	     9.695
  41.840         79.17	     9.747
  41.860         94.17	    10.630
  41.880        115.83	    11.790
  41.900        127.50	    12.369
  41.920        112.50	    11.619
  41.940         87.50	    10.247
  41.960         94.17	    10.630
  41.980         85.83	    10.149
  42.000         98.33	    10.863
  42.020         86.67	    10.198
  42.040         81.67	     9.899
  42.060         80.83	     9.849
  42.080         64.17	     8.775
  42.100         69.17	     9.110
  42.120         73.33	     9.381
  42.140         98.33	    10.863
  42.160         92.50	    10.536
  42.180         70.83	     9.220
  42.200         61.67	     8.602
  42.220         65.00	     8.832
  42.240         72.50	     9.327
  42.260         60.00	     8.485
  42.280         76.67	     9.592
  42.300         54.17	     8.062
  42.320         51.67	     7.874
  42.340         55.83	     8.185
  42.360         49.17	     7.681
  42.380         51.67	     7.874
  42.400         55.83	     8.185
  42.420         68.33	     9.055
  42.440         64.17	     8.775
  42.460         68.33	     9.055
  42.480         85.00	    10.100
  42.500         81.67	     9.899
  42.520         85.83	    10.149
  42.540         82.50	     9.950
  42.560        117.50	    11.874
  42.580        127.50	    12.369
  42.600        169.17	    14.248
  42.620        129.17	    12.450
  42.640        160.83	    13.892
  42.660        135.83	    12.767
  42.680        118.33	    11.916
  42.700        105.00	    11.225
  42.720        106.67	    11.314
  42.740        112.50	    11.619
  42.760         78.33	     9.695
  42.780         72.50	     9.327
  42.800         80.00	     9.798
  42.820         67.50	     9.000
  42.840         74.17	     9.434
  42.860         61.67	     8.602
  42.880         70.83	     9.220
  42.900         77.50	     9.644
  42.920         50.00	     7.746
  42.940         68.33	     9.055
  42.960         55.00	     8.124
  42.980         71.67	     9.274
  43.000         60.83	     8.544
  43.020         45.83	     7.416
  43.040         62.50	     8.660
  43.060         51.67	     7.874
  43.080         66.67	     8.944
  43.100         55.00	     8.124
  43.120         52.50	     7.937
  43.140         49.17	     7.681
  43.160         40.00	     6.928
  43.180         49.17	     7.681
  43.200         51.67	     7.874
  43.220         41.67	     7.071
  43.240         39.17	     6.856
  43.260         45.00	     7.348
  43.280         33.33	     6.325
  43.300         39.17	     6.856
  43.320         42.50	     7.141
  43.340         32.50	     6.245
  43.360         41.67	     7.071
  43.380         41.67	     7.071
  43.400         40.00	     6.928
  43.420         44.17	     7.280
  43.440         43.33	     7.211
  43.460         40.83	     7.000
  43.480         26.67	     5.657
  43.500         30.00	     6.000
  43.520         45.83	     7.416
  43.540         31.67	     6.164
  43.560         33.33	     6.325
  43.580         39.17	     6.856
  43.600         43.33	     7.211
  43.620         48.33	     7.616
  43.640         49.17	     7.681
  43.660         64.17	     8.775
  43.680         46.67	     7.483
  43.700         66.67	     8.944
  43.720         58.33	     8.367
  43.740         64.17	     8.775
  43.760         55.00	     8.124
  43.780         55.00	     8.124
  43.800         49.17	     7.681
  43.820         39.17	     6.856
  43.840         43.33	     7.211
  43.860         54.17	     8.062
  43.880         36.67	     6.633
  43.900         55.83	     8.185
  43.920         47.50	     7.550
  43.940         40.00	     6.928
  43.960         37.50	     6.708
  43.980         49.17	     7.681
  44.000         50.83	     7.810
  44.020         53.33	     8.000
  44.040         47.50	     7.550
  44.060         47.50	     7.550
  44.080         38.33	     6.782
  44.100         54.17	     8.062
  44.120         40.00	     6.928
  44.140         37.50	     6.708
  44.160         45.00	     7.348
  44.180         52.50	     7.937
  44.200         50.83	     7.810
  44.220         55.00	     8.124
  44.240         35.83	     6.557
  44.260         39.17	     6.856
  44.280         35.00	     6.481
  44.300         44.17	     7.280
  44.320         49.17	     7.681
  44.340         65.00	     8.832
  44.360         47.50	     7.550
  44.380         43.33	     7.211
  44.400         58.33	     8.367
  44.420         44.17	     7.280
  44.440         45.83	     7.416
  44.460         47.50	     7.550
  44.480         43.33	     7.211
  44.500         34.17	     6.403
  44.520         46.67	     7.483
  44.540         35.00	     6.481
  44.560         49.17	     7.681
  44.580         35.00	     6.481
  44.600         45.00	     7.348
  44.620         52.50	     7.937
  44.640         40.00	     6.928
  44.660         44.17	     7.280
  44.680         36.67	     6.633
  44.700         41.67	     7.071
  44.720         50.00	     7.746
  44.740         46.67	     7.483
  44.760         43.33	     7.211
  44.780         30.83	     6.083
  44.800         39.17	     6.856
  44.820         50.83	     7.810
  44.840         52.50	     7.937
  44.860         52.50	     7.937
  44.880         47.50	     7.550
  44.900         53.33	     8.000
  44.920         59.17	     8.426
  44.940         45.83	     7.416
  44.960         51.67	     7.874
  44.980         60.83	     8.544
  45.000         64.17	     8.775
  45.020         75.83	     9.539
  45.040         73.33	     9.381
  45.060         81.67	     9.899
  45.080         86.67	    10.198
  45.100         98.33	    10.863
  45.120         86.67	    10.198
  45.140         93.33	    10.583
  45.160         90.00	    10.392
  45.180         80.00	     9.798
  45.200         93.33	    10.583
  45.220         76.67	     9.592
  45.240         88.33	    10.296
  45.260         94.17	    10.630
  45.280         94.17	    10.630
  45.300         80.83	     9.849
  45.320         96.67	    10.770
  45.340        100.00	    10.954
  45.360        100.83	    11.000
  45.380        105.00	    11.225
  45.400         90.83	    10.440
  45.420         86.67	    10.198
  45.440        123.33	    12.166
  45.460        102.50	    11.091
  45.480         97.50	    10.817
  45.500        117.50	    11.874
  45.520        110.83	    11.533
  45.540        107.50	    11.358
  45.560        118.33	    11.916
  45.580        160.83	    13.892
  45.600        158.33	    13.784
  45.620        160.00	    13.856
  45.640        179.17	    14.663
  45.660        194.17	    15.264
  45.680        189.17	    15.067
  45.700        214.17	    16.031
  45.720        210.00	    15.875
  45.740        215.00	    16.062
  45.760        198.33	    15.427
  45.780        202.50	    15.588
  45.800        177.50	    14.595
  45.820        167.50	    14.177
  45.840        148.33	    13.342
  45.860        140.83	    13.000
  45.880        151.67	    13.491
  45.900        135.83	    12.767
  45.920        130.83	    12.530
  45.940        129.17	    12.450
  45.960        124.17	    12.207
  45.980         96.67	    10.770
  46.000        100.00	    10.954
  46.020         75.00	     9.487
  46.040        100.00	    10.954
  46.060         80.00	     9.798
  46.080         80.83	     9.849
  46.100         65.83	     8.888
  46.120         70.83	     9.220
  46.140         75.83	     9.539
  46.160         60.83	     8.544
  46.180         53.33	     8.000
  46.200         53.33	     8.000
  46.220         73.33	     9.381
  46.240         56.67	     8.246
  46.260         67.50	     9.000
  46.280         53.33	     8.000
  46.300         64.17	     8.775
  46.320         52.50	     7.937
  46.340         65.00	     8.832
  46.360         49.17	     7.681
  46.380         51.67	     7.874
  46.400         50.83	     7.810
  46.420         57.50	     8.307
  46.440         43.33	     7.211
  46.460         40.83	     7.000
  46.480         39.17	     6.856
  46.500         47.50	     7.550
  46.520         25.83	     5.568
  46.540         35.83	     6.557
  46.560         34.17	     6.403
  46.580         33.33	     6.325
  46.600         40.83	     7.000
  46.620         38.33	     6.782
  46.640         32.50	     6.245
  46.660         37.50	     6.708
  46.680         50.83	     7.810
  46.700         50.83	     7.810
  46.720         35.83	     6.557
  46.740         33.33	     6.325
  46.760         40.00	     6.928
  46.780         45.00	     7.348
  46.800         44.17	     7.280
  46.820         34.17	     6.403
  46.840         31.67	     6.164
  46.860         35.00	     6.481
  46.880         45.00	     7.348
  46.900         25.00	     5.477
  46.920         37.50	     6.708
  46.940         40.83	     7.000
  46.960         35.83	     6.557
  46.980         34.17	     6.403
  47.000         45.83	     7.416
  47.020         45.83	     7.416
  47.040         35.83	     6.557
  47.060         34.17	     6.403
  47.080         34.17	     6.403
  47.100         47.50	     7.550
  47.120         35.83	     6.557
  47.140         42.50	     7.141
  47.160         30.83	     6.083
  47.180         38.33	     6.782
  47.200         45.83	     7.416
  47.220         48.33	     7.616
  47.240         55.00	     8.124
  47.260         58.33	     8.367
  47.280         64.17	     8.775
  47.300         50.83	     7.810
  47.320         47.50	     7.550
  47.340         51.67	     7.874
  47.360         50.00	     7.746
  47.380         52.50	     7.937
  47.400         45.83	     7.416
  47.420         60.00	     8.485
  47.440         52.50	     7.937
  47.460         34.17	     6.403
  47.480         37.50	     6.708
  47.500         39.17	     6.856
  47.520         40.00	     6.928
  47.540         33.33	     6.325
  47.560         37.50	     6.708
  47.580         38.33	     6.782
  47.600         44.17	     7.280
  47.620         38.33	     6.782
  47.640         45.00	     7.348
  47.660         31.67	     6.164
  47.680         40.83	     7.000
  47.700         32.50	     6.245
  47.720         45.00	     7.348
  47.740         36.67	     6.633
  47.760         29.17	     5.916
  47.780         43.33	     7.211
  47.800         44.17	     7.280
  47.820         26.67	     5.657
  47.840         30.00	     6.000
  47.860         29.17	     5.916
  47.880         33.33	     6.325
  47.900         41.67	     7.071
  47.920         37.50	     6.708
  47.940         40.00	     6.928
  47.960         32.50	     6.245
  47.980         33.33	     6.325
  48.000         37.50	     6.708
  48.020         33.33	     6.325
  48.040         35.00	     6.481
  48.060         47.50	     7.550
  48.080         55.00	     8.124
  48.100         43.33	     7.211
  48.120         52.50	     7.937
  48.140         58.33	     8.367
  48.160         56.67	     8.246
  48.180         58.33	     8.367
  48.200         54.17	     8.062
  48.220         53.33	     8.000
  48.240         67.50	     9.000
  48.260         72.50	     9.327
  48.280         69.17	     9.110
  48.300         88.33	    10.296
  48.320         84.17	    10.050
  48.340         80.83	     9.849
  48.360         61.67	     8.602
  48.380         64.17	     8.775
  48.400         66.67	     8.944
  48.420         68.33	     9.055
  48.440         68.33	     9.055
  48.460         60.83	     8.544
  48.480         64.17	     8.775
  48.500         68.33	     9.055
  48.520         47.50	     7.550
  48.540         54.17	     8.062
  48.560         59.17	     8.426
  48.580         54.17	     8.062
  48.600         55.83	     8.185
  48.620         41.67	     7.071
  48.640         41.67	     7.071
  48.660         55.83	     8.185
  48.680         55.83	     8.185
  48.700         64.17	     8.775
  48.720         43.33	     7.211
  48.740         38.33	     6.782
  48.760         47.50	     7.550
  48.780         37.50	     6.708
  48.800         45.00	     7.348
  48.820         55.00	     8.124
  48.840         43.33	     7.211
  48.860         60.00	     8.485
  48.880         50.83	     7.810
  48.900         40.83	     7.000
  48.920         51.67	     7.874
  48.940         53.33	     8.000
  48.960         51.67	     7.874
  48.980         39.17	     6.856
  49.000         44.17	     7.280
  49.020         50.00	     7.746
  49.040         38.33	     6.782
  49.060         43.33	     7.211
  49.080         42.50	     7.141
  49.100         38.33	     6.782
  49.120         58.33	     8.367
  49.140         35.00	     6.481
  49.160         46.67	     7.483
  49.180         48.33	     7.616
  49.200         48.33	     7.616
  49.220         36.67	     6.633
  49.240         51.67	     7.874
  49.260         47.50	     7.550
  49.280         35.00	     6.481
  49.300         48.33	     7.616
  49.320         45.83	     7.416
  49.340         49.17	     7.681
  49.360         71.67	     9.274
  49.380         62.50	     8.660
  49.400         62.50	     8.660
  49.420         43.33	     7.211
  49.440         61.67	     8.602
  49.460         56.67	     8.246
  49.480         42.50	     7.141
  49.500         60.00	     8.485
  49.520         53.33	     8.000
  49.540         64.17	     8.775
  49.560         61.67	     8.602
  49.580         46.67	     7.483
  49.600         48.33	     7.616
  49.620         55.83	     8.185
  49.640         56.67	     8.246
  49.660         58.33	     8.367
  49.680         45.00	     7.348
  49.700         49.17	     7.681
  49.720         40.83	     7.000
  49.740         54.17	     8.062
  49.760         67.50	     9.000
  49.780         50.00	     7.746
  49.800         65.83	     8.888
  49.820         60.83	     8.544
  49.840         42.50	     7.141
  49.860         73.33	     9.381
  49.880         50.83	     7.810
  49.900         51.67	     7.874
  49.920         66.67	     8.944
  49.940         57.50	     8.307
  49.960         74.17	     9.434
  49.980         76.67	     9.592
  50.000         80.00	     9.798
  50.020         73.33	     9.381
  50.040         83.33	    10.000
  50.060         80.83	     9.849
  50.080         90.83	    10.440
  50.100         93.33	    10.583
  50.120         91.67	    10.488
  50.140         98.33	    10.863
  50.160         79.17	     9.747
  50.180         86.67	    10.198
  50.200        104.17	    11.180
  50.220        122.50	    12.124
  50.240        154.17	    13.601
  50.260        223.33	    16.371
  50.280        295.00	    18.815
  50.300        312.50	    19.365
  50.320        245.00	    17.146
  50.340        163.33	    14.000
  50.360        132.50	    12.610
  50.380        130.00	    12.490
  50.400        140.00	    12.961
  50.420        194.17	    15.264
  50.440        161.67	    13.928
  50.460        125.83	    12.288
  50.480         95.83	    10.724
  50.500         62.50	     8.660
  50.520         60.83	     8.544
  50.540         57.50	     8.307
  50.560         58.33	     8.367
  50.580         55.83	     8.185
  50.600         60.83	     8.544
  50.620         45.00	     7.348
  50.640         48.33	     7.616
  50.660         55.83	     8.185
  50.680         60.00	     8.485
  50.700         70.00	     9.165
  50.720         75.83	     9.539
  50.740         90.83	    10.440
  50.760         85.83	    10.149
  50.780         87.50	    10.247
  50.800         65.00	     8.832
  50.820         78.33	     9.695
  50.840         56.67	     8.246
  50.860         60.83	     8.544
  50.880         85.00	    10.100
  50.900         80.83	     9.849
  50.920         94.17	    10.630
  50.940         47.50	     7.550
  50.960         55.83	     8.185
  50.980         46.67	     7.483
  51.000         45.83	     7.416
  51.020         53.33	     8.000
  51.040         46.67	     7.483
  51.060         54.17	     8.062
  51.080         30.83	     6.083
  51.100         43.33	     7.211
  51.120         53.33	     8.000
  51.140         45.00	     7.348
  51.160         43.33	     7.211
  51.180         50.00	     7.746
  51.200         26.67	     5.657
  51.220         39.17	     6.856
  51.240         55.83	     8.185
  51.260         74.17	     9.434
  51.280         85.00	    10.100
  51.300         74.17	     9.434
  51.320         89.17	    10.344
  51.340         88.33	    10.296
  51.360         94.17	    10.630
  51.380         71.67	     9.274
  51.400         66.67	     8.944
  51.420         72.50	     9.327
  51.440         86.67	    10.198
  51.460         89.17	    10.344
  51.480         74.17	     9.434
  51.500         78.33	     9.695
  51.520         60.83	     8.544
  51.540         49.17	     7.681
  51.560         50.83	     7.810
  51.580         53.33	     8.000
  51.600         48.33	     7.616
  51.620         46.67	     7.483
  51.640         52.50	     7.937
  51.660         35.00	     6.481
  51.680         46.67	     7.483
  51.700         43.33	     7.211
  51.720         34.17	     6.403
  51.740         30.00	     6.000
  51.760         26.67	     5.657
  51.780         29.17	     5.916
  51.800         34.17	     6.403
  51.820         25.83	     5.568
  51.840         39.17	     6.856
  51.860         30.00	     6.000
  51.880         32.50	     6.245
  51.900         38.33	     6.782
  51.920         37.50	     6.708
  51.940         33.33	     6.325
  51.960         30.00	     6.000
  51.980         25.83	     5.568
  52.000         34.17	     6.403
  52.020         32.50	     6.245
  52.040         29.17	     5.916
  52.060         26.67	     5.657
  52.080         35.83	     6.557
  52.100         39.17	     6.856
  52.120         34.17	     6.403
  52.140         42.50	     7.141
  52.160         32.50	     6.245
  52.180         28.33	     5.831
  52.200         40.83	     7.000
  52.220         40.83	     7.000
  52.240         42.50	     7.141
  52.260         49.17	     7.681
  52.280         50.00	     7.746
  52.300         53.33	     8.000
  52.320         50.83	     7.810
  52.340         63.33	     8.718
  52.360         47.50	     7.550
  52.380         43.33	     7.211
  52.400         40.00	     6.928
  52.420         63.33	     8.718
  52.440         54.17	     8.062
  52.460         55.83	     8.185
  52.480         51.67	     7.874
  52.500         55.83	     8.185
  52.520         40.83	     7.000
  52.540         53.33	     8.000
  52.560         55.00	     8.124
  52.580         44.17	     7.280
  52.600         65.83	     8.888
  52.620         48.33	     7.616
  52.640         61.67	     8.602
  52.660         43.33	     7.211
  52.680         65.83	     8.888
  52.700         65.83	     8.888
  52.720         46.67	     7.483
  52.740         55.83	     8.185
  52.760         48.33	     7.616
  52.780         46.67	     7.483
  52.800         49.17	     7.681
  52.820         49.17	     7.681
  52.840         41.67	     7.071
  52.860         63.33	     8.718
  52.880         53.33	     8.000
  52.900         49.17	     7.681
  52.920         46.67	     7.483
  52.940         56.67	     8.246
  52.960         50.83	     7.810
  52.980         43.33	     7.211
  53.000         55.00	     8.124
  53.020         56.67	     8.246
  53.040         60.00	     8.485
  53.060         53.33	     8.000
  53.080         50.00	     7.746
  53.100         51.67	     7.874
  53.120         55.83	     8.185
  53.140         58.33	     8.367
  53.160         45.83	     7.416
  53.180         56.67	     8.246
  53.200         51.67	     7.874
  53.220         41.67	     7.071
  53.240         54.17	     8.062
  53.260         59.17	     8.426
  53.280         50.83	     7.810
  53.300         57.50	     8.307
  53.320         71.67	     9.274
  53.340         77.50	     9.644
  53.360         56.67	     8.246
  53.380         77.50	     9.644
  53.400         65.83	     8.888
  53.420         58.33	     8.367
  53.440         61.67	     8.602
  53.460         52.50	     7.937
  53.480         65.00	     8.832
  53.500         60.00	     8.485
  53.520         51.67	     7.874
  53.540         54.17	     8.062
  53.560         54.17	     8.062
  53.580         47.50	     7.550
  53.600         44.17	     7.280
  53.620         45.00	     7.348
  53.640         40.00	     6.928
  53.660         54.17	     8.062
  53.680         45.00	     7.348
  53.700         55.83	     8.185
  53.720         33.33	     6.325
  53.740         45.00	     7.348
  53.760         38.33	     6.782
  53.780         27.50	     5.745
  53.800         46.67	     7.483
  53.820         49.17	     7.681
  53.840         45.83	     7.416
  53.860         47.50	     7.550
  53.880         54.17	     8.062
  53.900         41.67	     7.071
  53.920         38.33	     6.782
  53.940         42.50	     7.141
  53.960         53.33	     8.000
  53.980         35.83	     6.557
  54.000         39.17	     6.856
  54.020         38.33	     6.782
  54.040         47.50	     7.550
  54.060         40.00	     6.928
  54.080         47.50	     7.550
  54.100         49.17	     7.681
  54.120         38.33	     6.782
  54.140         42.50	     7.141
  54.160         37.50	     6.708
  54.180         31.67	     6.164
  54.200         44.17	     7.280
  54.220         35.00	     6.481
  54.240         37.50	     6.708
  54.260         42.50	     7.141
  54.280         34.17	     6.403
  54.300         44.17	     7.280
  54.320         44.17	     7.280
  54.340         42.50	     7.141
  54.360         42.50	     7.141
  54.380         45.00	     7.348
  54.400         39.17	     6.856
  54.420         43.33	     7.211
  54.440         46.67	     7.483
  54.460         42.50	     7.141
  54.480         57.50	     8.307
  54.500         53.33	     8.000
  54.520         55.83	     8.185
  54.540         47.50	     7.550
  54.560         61.67	     8.602
  54.580         58.33	     8.367
  54.600         51.67	     7.874
  54.620         41.67	     7.071
  54.640         55.83	     8.185
  54.660         59.17	     8.426
  54.680         50.83	     7.810
  54.700         55.83	     8.185
  54.720         57.50	     8.307
  54.740         54.17	     8.062
  54.760         56.67	     8.246
  54.780         54.17	     8.062
  54.800         59.17	     8.426
  54.820         54.17	     8.062
  54.840         61.67	     8.602
  54.860         47.50	     7.550
  54.880         57.50	     8.307
  54.900         50.83	     7.810
  54.920         51.67	     7.874
  54.940         60.00	     8.485
  54.960         62.50	     8.660
  54.980         80.83	     9.849
  55.000         92.50	    10.536
  55.020         86.67	    10.198
  55.040         89.17	    10.344
  55.060         87.50	    10.247
  55.080         58.33	     8.367
  55.100         58.33	     8.367
  55.120         69.17	     9.110
  55.140         74.17	     9.434
  55.160         82.50	     9.950
  55.180         62.50	     8.660
  55.200         67.50	     9.000
  55.220         64.17	     8.775
  55.240         65.00	     8.832
  55.260         60.00	     8.485
  55.280         60.83	     8.544
  55.300         62.50	     8.660
  55.320         63.33	     8.718
  55.340         64.17	     8.775
  55.360         65.83	     8.888
  55.380         60.83	     8.544
  55.400         64.17	     8.775
  55.420         55.83	     8.185
  55.440         66.67	     8.944
  55.460         73.33	     9.381
  55.480         67.50	     9.000
  55.500         74.17	     9.434
  55.520         59.17	     8.426
  55.540         70.00	     9.165
  55.560         64.17	     8.775
  55.580         55.83	     8.185
  55.600         71.67	     9.274
  55.620         65.00	     8.832
  55.640         55.83	     8.185
  55.660         58.33	     8.367
  55.680         64.17	     8.775
  55.700         56.67	     8.246
  55.720         55.83	     8.185
  55.740         57.50	     8.307
  55.760         65.00	     8.832
  55.780         63.33	     8.718
  55.800         64.17	     8.775
  55.820         74.17	     9.434
  55.840         90.83	    10.440
  55.860         93.33	    10.583
  55.880        124.17	    12.207
  55.900         99.17	    10.909
  55.920        107.50	    11.358
  55.940        101.67	    11.045
  55.960        112.50	    11.619
  55.980         89.17	    10.344
  56.000         97.50	    10.817
  56.020        110.00	    11.489
  56.040        100.83	    11.000
  56.060         94.17	    10.630
  56.080         89.17	    10.344
  56.100         82.50	     9.950
  56.120         76.67	     9.592
  56.140         75.00	     9.487
  56.160         68.33	     9.055
  56.180         65.83	     8.888
  56.200         64.17	     8.775
  56.220         60.00	     8.485
  56.240         64.17	     8.775
  56.260         53.33	     8.000
  56.280         63.33	     8.718
  56.300         53.33	     8.000
  56.320         44.17	     7.280
  56.340         53.33	     8.000
  56.360         55.83	     8.185
  56.380         52.50	     7.937
  56.400         42.50	     7.141
  56.420         45.83	     7.416
  56.440         45.00	     7.348
  56.460         47.50	     7.550
  56.480         48.33	     7.616
  56.500         42.50	     7.141
  56.520         40.83	     7.000
  56.540         33.33	     6.325
  56.560         45.83	     7.416
  56.580         43.33	     7.211
  56.600         43.33	     7.211
  56.620         39.17	     6.856
  56.640         38.33	     6.782
  56.660         40.00	     6.928
  56.680         50.83	     7.810
  56.700         55.83	     8.185
  56.720         50.83	     7.810
  56.740         35.83	     6.557
  56.760         45.83	     7.416
  56.780         55.83	     8.185
  56.800         43.33	     7.211
  56.820         37.50	     6.708
  56.840         50.00	     7.746
  56.860         55.00	     8.124
  56.880         49.17	     7.681
  56.900         45.00	     7.348
  56.920         30.83	     6.083
  56.940         42.50	     7.141
  56.960         45.83	     7.416
  56.980         30.83	     6.083
  57.000         33.33	     6.325
  57.020         45.00	     7.348
  57.040         47.50	     7.550
  57.060         42.50	     7.141
  57.080         45.83	     7.416
  57.100         38.33	     6.782
  57.120         39.17	     6.856
  57.140         42.50	     7.141
  57.160         45.00	     7.348
  57.180         42.50	     7.141
  57.200         49.17	     7.681
  57.220         32.50	     6.245
  57.240         48.33	     7.616
  57.260         40.00	     6.928
  57.280         44.17	     7.280
  57.300         52.50	     7.937
  57.320         41.67	     7.071
  57.340         40.83	     7.000
  57.360         44.17	     7.280
  57.380         32.50	     6.245
  57.400         49.17	     7.681
  57.420         41.67	     7.071
  57.440         40.00	     6.928
  57.460         36.67	     6.633
  57.480         35.83	     6.557
  57.500         43.33	     7.211
  57.520         43.33	     7.211
  57.540         31.67	     6.164
  57.560         39.17	     6.856
  57.580         27.50	     5.745
  57.600         30.00	     6.000
  57.620         38.33	     6.782
  57.640         41.67	     7.071
  57.660         54.17	     8.062
  57.680         31.67	     6.164
  57.700         38.33	     6.782
  57.720         43.33	     7.211
  57.740         39.17	     6.856
  57.760         40.83	     7.000
  57.780         38.33	     6.782
  57.800         32.50	     6.245
  57.820         40.00	     6.928
  57.840         49.17	     7.681
  57.860         43.33	     7.211
  57.880         46.67	     7.483
  57.900         39.17	     6.856
  57.920         43.33	     7.211
  57.940         37.50	     6.708
  57.960         48.33	     7.616
  57.980         44.17	     7.280
  58.000         37.50	     6.708
  58.020         34.17	     6.403
  58.040         35.83	     6.557
  58.060         40.00	     6.928
  58.080         41.67	     7.071
  58.100         41.67	     7.071
  58.120         45.00	     7.348
  58.140         46.67	     7.483
  58.160         36.67	     6.633
  58.180         46.67	     7.483
  58.200         48.33	     7.616
  58.220         56.67	     8.246
  58.240         52.50	     7.937
  58.260         45.00	     7.348
  58.280         50.00	     7.746
  58.300         63.33	     8.718
  58.320         55.83	     8.185
  58.340         48.33	     7.616
  58.360         48.33	     7.616
  58.380         49.17	     7.681
  58.400         46.67	     7.483
  58.420         48.33	     7.616
  58.440         62.50	     8.660
  58.460         62.50	     8.660
  58.480         55.83	     8.185
  58.500         60.83	     8.544
  58.520         45.00	     7.348
  58.540         40.83	     7.000
  58.560         50.83	     7.810
  58.580         55.00	     8.124
  58.600         49.17	     7.681
  58.620         41.67	     7.071
  58.640         55.00	     8.124
  58.660         53.33	     8.000
  58.680         46.67	     7.483
  58.700         58.33	     8.367
  58.720         55.00	     8.124
  58.740         61.67	     8.602
  58.760         59.17	     8.426
  58.780         70.83	     9.220
  58.800         54.17	     8.062
  58.820         68.33	     9.055
  58.840         62.50	     8.660
  58.860         62.50	     8.660
  58.880         63.33	     8.718
  58.900         66.67	     8.944
  58.920         70.00	     9.165
  58.940         56.67	     8.246
  58.960         56.67	     8.246
  58.980         52.50	     7.937
  59.000         56.67	     8.246
  59.020         57.50	     8.307
  59.040         68.33	     9.055
  59.060         82.50	     9.950
  59.080         59.17	     8.426
  59.100         71.67	     9.274
  59.120         69.17	     9.110
  59.140         56.67	     8.246
  59.160         63.33	     8.718
  59.180         65.00	     8.832
  59.200         65.83	     8.888
  59.220         68.33	     9.055
  59.240         66.67	     8.944
  59.260         61.67	     8.602
  59.280         58.33	     8.367
  59.300         90.83	    10.440
  59.320         75.00	     9.487
  59.340        100.83	    11.000
  59.360         87.50	    10.247
  59.380         79.17	     9.747
  59.400         69.17	     9.110
  59.420         57.50	     8.307
  59.440         65.00	     8.832
  59.460         58.33	     8.367
  59.480         51.67	     7.874
  59.500         60.00	     8.485
  59.520         70.83	     9.220
  59.540         75.83	     9.539
  59.560         59.17	     8.426
  59.580         59.17	     8.426
  59.600         67.50	     9.000
  59.620         57.50	     8.307
  59.640         61.67	     8.602
  59.660         56.67	     8.246
  59.680         39.17	     6.856
  59.700         46.67	     7.483
  59.720         62.50	     8.660
  59.740         49.17	     7.681
  59.760         46.67	     7.483
  59.780         49.17	     7.681
  59.800         48.33	     7.616
  59.820         46.67	     7.483
  59.840         58.33	     8.367
  59.860         47.50	     7.550
  59.880         47.50	     7.550
  59.900         50.00	     7.746
  59.920         70.00	     9.165
  59.940         62.50	     8.660
  59.960         59.17	     8.426
  59.980         72.50	     9.327
  60.000         61.67	     8.602
  60.020         81.67	     9.899
  60.040        117.50	    11.874
  60.060        133.33	    12.649
  60.080        170.00	    14.283
  60.100        190.83	    15.133
  60.120        177.50	    14.595
  60.140        145.00	    13.191
  60.160        140.00	    12.961
  60.180        109.17	    11.446
  60.200        105.83	    11.269
  60.220         95.00	    10.677
  60.240        102.50	    11.091
  60.260        136.67	    12.806
  60.280        115.00	    11.747
  60.300        110.00	    11.489
  60.320         89.17	    10.344
  60.340         82.50	     9.950
  60.360         80.83	     9.849
  60.380         76.67	     9.592
  60.400         57.50	     8.307
  60.420         58.33	     8.367
  60.440         61.67	     8.602
  60.460         71.67	     9.274
  60.480         64.17	     8.775
  60.500         54.17	     8.062
  60.520         54.17	     8.062
  60.540         57.50	     8.307
  60.560         47.50	     7.550
  60.580         53.33	     8.000
  60.600         54.17	     8.062
  60.620         52.50	     7.937
  60.640         55.83	     8.185
  60.660         64.17	     8.775
  60.680         60.00	     8.485
  60.700         75.83	     9.539
  60.720         65.83	     8.888
  60.740         67.50	     9.000
  60.760         67.50	     9.000
  60.780         80.00	     9.798
  60.800         67.50	     9.000
  60.820         66.67	     8.944
  60.840         59.17	     8.426
  60.860         68.33	     9.055
  60.880         70.00	     9.165
  60.900         65.83	     8.888
  60.920         71.67	     9.274
  60.940         86.67	    10.198
  60.960         75.83	     9.539
  60.980         75.00	     9.487
  61.000         98.33	    10.863
  61.020         70.83	     9.220
  61.040         64.17	     8.775
  61.060         80.83	     9.849
  61.080         71.67	     9.274
  61.100         71.67	     9.274
  61.120         71.67	     9.274
  61.140         72.50	     9.327
  61.160         75.00	     9.487
  61.180         73.33	     9.381
  61.200         70.00	     9.165
  61.220         70.00	     9.165
  61.240         64.17	     8.775
  61.260         56.67	     8.246
  61.280         70.83	     9.220
  61.300         61.67	     8.602
  61.320         55.00	     8.124
  61.340         58.33	     8.367
  61.360         54.17	     8.062
  61.380         50.83	     7.810
  61.400         68.33	     9.055
  61.420         53.33	     8.000
  61.440         65.83	     8.888
  61.460         60.00	     8.485
  61.480         74.17	     9.434
  61.500         57.50	     8.307
  61.520         61.67	     8.602
  61.540         65.83	     8.888
  61.560         73.33	     9.381
  61.580         80.83	     9.849
  61.600         71.67	     9.274
  61.620         75.00	     9.487
  61.640        103.33	    11.136
  61.660         75.83	     9.539
  61.680         92.50	    10.536
  61.700         73.33	     9.381
  61.720         80.83	     9.849
  61.740         72.50	     9.327
  61.760         75.83	     9.539
  61.780         75.83	     9.539
  61.800         70.83	     9.220
  61.820         76.67	     9.592
  61.840         72.50	     9.327
  61.860         63.33	     8.718
  61.880         65.00	     8.832
  61.900         74.17	     9.434
  61.920         75.00	     9.487
  61.940         74.17	     9.434
  61.960         72.50	     9.327
  61.980         69.17	     9.110
  62.000         70.83	     9.220
  62.020         68.33	     9.055
  62.040         59.17	     8.426
  62.060         59.17	     8.426
  62.080         67.50	     9.000
  62.100         67.50	     9.000
  62.120         53.33	     8.000
  62.140         73.33	     9.381
  62.160         56.67	     8.246
  62.180         51.67	     7.874
  62.200         63.33	     8.718
  62.220         61.67	     8.602
  62.240         54.17	     8.062
  62.260         56.67	     8.246
  62.280         54.17	     8.062
  62.300         47.50	     7.550
  62.320         52.50	     7.937
  62.340         50.00	     7.746
  62.360         50.00	     7.746
  62.380         50.83	     7.810
  62.400         39.17	     6.856
  62.420         39.17	     6.856
  62.440         49.17	     7.681
  62.460         44.17	     7.280
  62.480         37.50	     6.708
  62.500         37.50	     6.708
  62.520         33.33	     6.325
  62.540         47.50	     7.550
  62.560         43.33	     7.211
  62.580         34.17	     6.403
  62.600         42.50	     7.141
  62.620         55.00	     8.124
  62.640         44.17	     7.280
  62.660         41.67	     7.071
  62.680         42.50	     7.141
  62.700         46.67	     7.483
  62.720         49.17	     7.681
  62.740         53.33	     8.000
  62.760         49.17	     7.681
  62.780         53.33	     8.000
  62.800         38.33	     6.782
  62.820         58.33	     8.367
  62.840         54.17	     8.062
  62.860         50.00	     7.746
  62.880         55.00	     8.124
  62.900         56.67	     8.246
  62.920         60.83	     8.544
  62.940         49.17	     7.681
  62.960         62.50	     8.660
  62.980         55.00	     8.124
  63.000         45.83	     7.416
  63.020         60.83	     8.544
  63.040         55.83	     8.185
  63.060         39.17	     6.856
  63.080         48.33	     7.616
  63.100         38.33	     6.782
  63.120         40.00	     6.928
  63.140         36.67	     6.633
  63.160         45.00	     7.348
  63.180         44.17	     7.280
  63.200         32.50	     6.245
  63.220         35.00	     6.481
  63.240         46.67	     7.483
  63.260         50.00	     7.746
  63.280         27.50	     5.745
  63.300         42.50	     7.141
  63.320         49.17	     7.681
  63.340         53.33	     8.000
  63.360         50.83	     7.810
  63.380         47.50	     7.550
  63.400         53.33	     8.000
  63.420         37.50	     6.708
  63.440         55.83	     8.185
  63.460         54.17	     8.062
  63.480         57.50	     8.307
  63.500         53.33	     8.000
  63.520         48.33	     7.616
  63.540         51.67	     7.874
  63.560         51.67	     7.874
  63.580         53.33	     8.000
  63.600         60.00	     8.485
  63.620         57.50	     8.307
  63.640         54.17	     8.062
  63.660         45.00	     7.348
  63.680         54.17	     8.062
  63.700         57.50	     8.307
  63.720         46.67	     7.483
  63.740         39.17	     6.856
  63.760         55.00	     8.124
  63.780         47.50	     7.550
  63.800         45.00	     7.348
  63.820         51.67	     7.874
  63.840         59.17	     8.426
  63.860         60.00	     8.485
  63.880         49.17	     7.681
  63.900         45.00	     7.348
  63.920         54.17	     8.062
  63.940         46.67	     7.483
  63.960         49.17	     7.681
  63.980         71.67	     9.274
  64.000         63.33	     8.718
  64.020         71.67	     9.274
  64.040         48.33	     7.616
  64.060         68.33	     9.055
  64.080         60.00	     8.485
  64.100         57.50	     8.307
  64.120         49.17	     7.681
  64.140         65.83	     8.888
  64.160         65.00	     8.832
  64.180         73.33	     9.381
  64.200         63.33	     8.718
  64.220         65.00	     8.832
  64.240         78.33	     9.695
  64.260         74.17	     9.434
  64.280         61.67	     8.602
  64.300         63.33	     8.718
  64.320         59.17	     8.426
  64.340         74.17	     9.434
  64.360         57.50	     8.307
  64.380         71.67	     9.274
  64.400         71.67	     9.274
  64.420         60.00	     8.485
  64.440         56.67	     8.246
  64.460         48.33	     7.616
  64.480         56.67	     8.246
  64.500         52.50	     7.937
  64.520         39.17	     6.856
  64.540         59.17	     8.426
  64.560         55.00	     8.124
  64.580         50.83	     7.810
  64.600         38.33	     6.782
  64.620         51.67	     7.874
  64.640         42.50	     7.141
  64.660         43.33	     7.211
  64.680         40.00	     6.928
  64.700         44.17	     7.280
  64.720         46.67	     7.483
  64.740         43.33	     7.211
  64.760         46.67	     7.483
  64.780         59.17	     8.426
  64.800         47.50	     7.550
  64.820         55.00	     8.124
  64.840         58.33	     8.367
  64.860         46.67	     7.483
  64.880         52.50	     7.937
  64.900         66.67	     8.944
  64.920         42.50	     7.141
  64.940         51.67	     7.874
  64.960         52.50	     7.937
  64.980         48.33	     7.616
  65.000         56.67	     8.246
