
Filename:
	C:\Program Files\Thermo Electron\WinXRD\Datafiles\F_HERMAN\GEO\GG_20_SFT.raw

File Created:
	October 14, 2020 - 04:10 AM

Specimen Id:
	GG_20_SFT

Specimen Name:
	

Specimen Description:
	

Comment:
Scan Type: 2Theta Scan
Start Angle: 3 deg.
Stop Angle: 65 deg.
Num Points: 3101
Step Size: 0.02 deg.
Scan Rate: 1.000000
Scan Mode: Continuous
Wavelength: 1.540562
\Kalpha1: 1.540562	\Kalpha2: 1.544390	\Kbeta: 1.392218

Optics:
		Detector:
			 Type: Fixed Slits
		Tube: 
			 Type: Fixed Slits


Datas:
 Pos [deg]       Rate [CPS]      ESD [-]

Range 1 ---> Iteration 1
   3.000        350.83	    20.518
   3.020        362.50	    20.857
   3.040        362.50	    20.857
   3.060        399.17	    21.886
   3.080        362.50	    20.857
   3.100        357.50	    20.712
   3.120        375.83	    21.237
   3.140        329.17	    19.875
   3.160        358.33	    20.736
   3.180        329.17	    19.875
   3.200        355.83	    20.664
   3.220        343.33	    20.298
   3.240        353.33	    20.591
   3.260        345.00	    20.347
   3.280        330.83	    19.925
   3.300        358.33	    20.736
   3.320        340.00	    20.199
   3.340        301.67	    19.026
   3.360        345.83	    20.372
   3.380        336.67	    20.100
   3.400        320.83	    19.621
   3.420        321.67	    19.647
   3.440        321.67	    19.647
   3.460        293.33	    18.762
   3.480        320.83	    19.621
   3.500        310.83	    19.313
   3.520        290.83	    18.682
   3.540        296.67	    18.868
   3.560        298.33	    18.921
   3.580        298.33	    18.921
   3.600        307.50	    19.209
   3.620        261.67	    17.720
   3.640        297.50	    18.894
   3.660        275.00	    18.166
   3.680        284.17	    18.466
   3.700        250.83	    17.349
   3.720        300.00	    18.974
   3.740        277.50	    18.248
   3.760        290.83	    18.682
   3.780        260.00	    17.664
   3.800        241.67	    17.029
   3.820        284.17	    18.466
   3.840        244.17	    17.117
   3.860        279.17	    18.303
   3.880        265.00	    17.833
   3.900        274.17	    18.138
   3.920        249.17	    17.292
   3.940        275.83	    18.193
   3.960        255.83	    17.521
   3.980        255.00	    17.493
   4.000        252.50	    17.407
   4.020        262.50	    17.748
   4.040        235.83	    16.823
   4.060        258.33	    17.607
   4.080        234.17	    16.763
   4.100        236.67	    16.852
   4.120        250.83	    17.349
   4.140        220.00	    16.248
   4.160        254.17	    17.464
   4.180        257.50	    17.578
   4.200        235.00	    16.793
   4.220        237.50	    16.882
   4.240        217.50	    16.155
   4.260        252.50	    17.407
   4.280        220.83	    16.279
   4.300        239.17	    16.941
   4.320        229.17	    16.583
   4.340        202.50	    15.588
   4.360        243.33	    17.088
   4.380        233.33	    16.733
   4.400        248.33	    17.263
   4.420        205.83	    15.716
   4.440        247.50	    17.234
   4.460        200.00	    15.492
   4.480        196.67	    15.362
   4.500        209.17	    15.843
   4.520        232.50	    16.703
   4.540        221.67	    16.310
   4.560        216.67	    16.125
   4.580        201.67	    15.556
   4.600        217.50	    16.155
   4.620        220.00	    16.248
   4.640        188.33	    15.033
   4.660        188.33	    15.033
   4.680        223.33	    16.371
   4.700        190.00	    15.100
   4.720        190.83	    15.133
   4.740        210.00	    15.875
   4.760        212.50	    15.969
   4.780        163.33	    14.000
   4.800        195.00	    15.297
   4.820        195.83	    15.330
   4.840        205.83	    15.716
   4.860        187.50	    15.000
   4.880        189.17	    15.067
   4.900        220.83	    16.279
   4.920        215.00	    16.062
   4.940        199.17	    15.460
   4.960        183.33	    14.832
   4.980        197.50	    15.395
   5.000        177.50	    14.595
   5.020        194.17	    15.264
   5.040        203.33	    15.620
   5.060        192.50	    15.199
   5.080        204.17	    15.652
   5.100        186.67	    14.967
   5.120        200.83	    15.524
   5.140        184.17	    14.866
   5.160        178.33	    14.629
   5.180        161.67	    13.928
   5.200        178.33	    14.629
   5.220        180.00	    14.697
   5.240        190.00	    15.100
   5.260        162.50	    13.964
   5.280        165.83	    14.107
   5.300        184.17	    14.866
   5.320        209.17	    15.843
   5.340        179.17	    14.663
   5.360        182.50	    14.799
   5.380        175.83	    14.526
   5.400        159.17	    13.820
   5.420        154.17	    13.601
   5.440        183.33	    14.832
   5.460        178.33	    14.629
   5.480        181.67	    14.765
   5.500        172.50	    14.387
   5.520        193.33	    15.232
   5.540        177.50	    14.595
   5.560        166.67	    14.142
   5.580        215.00	    16.062
   5.600        186.67	    14.967
   5.620        168.33	    14.213
   5.640        169.17	    14.248
   5.660        181.67	    14.765
   5.680        202.50	    15.588
   5.700        175.00	    14.491
   5.720        195.83	    15.330
   5.740        180.00	    14.697
   5.760        189.17	    15.067
   5.780        187.50	    15.000
   5.800        200.83	    15.524
   5.820        225.83	    16.462
   5.840        245.83	    17.176
   5.860        229.17	    16.583
   5.880        259.17	    17.635
   5.900        306.67	    19.183
   5.920        285.83	    18.520
   5.940        276.67	    18.221
   5.960        310.00	    19.287
   5.980        293.33	    18.762
   6.000        270.00	    18.000
   6.020        302.50	    19.053
   6.040        330.83	    19.925
   6.060        302.50	    19.053
   6.080        322.50	    19.672
   6.100        315.00	    19.442
   6.120        323.33	    19.698
   6.140        329.17	    19.875
   6.160        322.50	    19.672
   6.180        296.67	    18.868
   6.200        261.67	    17.720
   6.220        260.00	    17.664
   6.240        264.17	    17.804
   6.260        294.17	    18.788
   6.280        285.83	    18.520
   6.300        300.83	    19.000
   6.320        300.83	    19.000
   6.340        235.00	    16.793
   6.360        215.83	    16.093
   6.380        215.83	    16.093
   6.400        189.17	    15.067
   6.420        189.17	    15.067
   6.440        173.33	    14.422
   6.460        185.00	    14.900
   6.480        181.67	    14.765
   6.500        172.50	    14.387
   6.520        174.17	    14.457
   6.540        161.67	    13.928
   6.560        166.67	    14.142
   6.580        174.17	    14.457
   6.600        165.83	    14.107
   6.620        145.83	    13.229
   6.640        163.33	    14.000
   6.660        160.83	    13.892
   6.680        163.33	    14.000
   6.700        178.33	    14.629
   6.720        168.33	    14.213
   6.740        167.50	    14.177
   6.760        155.00	    13.638
   6.780        170.00	    14.283
   6.800        160.00	    13.856
   6.820        155.00	    13.638
   6.840        156.67	    13.711
   6.860        143.33	    13.115
   6.880        153.33	    13.565
   6.900        170.83	    14.318
   6.920        152.50	    13.528
   6.940        158.33	    13.784
   6.960        157.50	    13.748
   6.980        165.00	    14.071
   7.000        140.00	    12.961
   7.020        167.50	    14.177
   7.040        155.00	    13.638
   7.060        145.83	    13.229
   7.080        151.67	    13.491
   7.100        161.67	    13.928
   7.120        175.83	    14.526
   7.140        138.33	    12.884
   7.160        158.33	    13.784
   7.180        151.67	    13.491
   7.200        176.67	    14.560
   7.220        145.83	    13.229
   7.240        166.67	    14.142
   7.260        155.00	    13.638
   7.280        150.83	    13.454
   7.300        152.50	    13.528
   7.320        161.67	    13.928
   7.340        138.33	    12.884
   7.360        127.50	    12.369
   7.380        145.83	    13.229
   7.400        160.00	    13.856
   7.420        147.50	    13.304
   7.440        156.67	    13.711
   7.460        133.33	    12.649
   7.480        145.00	    13.191
   7.500        130.83	    12.530
   7.520        154.17	    13.601
   7.540        144.17	    13.153
   7.560        140.83	    13.000
   7.580        148.33	    13.342
   7.600        152.50	    13.528
   7.620        145.00	    13.191
   7.640        142.50	    13.077
   7.660        150.83	    13.454
   7.680        164.17	    14.036
   7.700        130.00	    12.490
   7.720        150.00	    13.416
   7.740        159.17	    13.820
   7.760        179.17	    14.663
   7.780        160.00	    13.856
   7.800        154.17	    13.601
   7.820        130.83	    12.530
   7.840        147.50	    13.304
   7.860        161.67	    13.928
   7.880        176.67	    14.560
   7.900        150.00	    13.416
   7.920        143.33	    13.115
   7.940        162.50	    13.964
   7.960        179.17	    14.663
   7.980        170.83	    14.318
   8.000        161.67	    13.928
   8.020        172.50	    14.387
   8.040        205.00	    15.684
   8.060        188.33	    15.033
   8.080        162.50	    13.964
   8.100        191.67	    15.166
   8.120        204.17	    15.652
   8.140        180.00	    14.697
   8.160        189.17	    15.067
   8.180        211.67	    15.937
   8.200        215.83	    16.093
   8.220        196.67	    15.362
   8.240        194.17	    15.264
   8.260        225.83	    16.462
   8.280        235.83	    16.823
   8.300        229.17	    16.583
   8.320        249.17	    17.292
   8.340        286.67	    18.547
   8.360        320.00	    19.596
   8.380        368.33	    21.024
   8.400        351.67	    20.543
   8.420        290.83	    18.682
   8.440        267.50	    17.916
   8.460        203.33	    15.620
   8.480        183.33	    14.832
   8.500        198.33	    15.427
   8.520        212.50	    15.969
   8.540        195.83	    15.330
   8.560        190.83	    15.133
   8.580        220.83	    16.279
   8.600        229.17	    16.583
   8.620        235.00	    16.793
   8.640        195.83	    15.330
   8.660        220.00	    16.248
   8.680        227.50	    16.523
   8.700        239.17	    16.941
   8.720        255.00	    17.493
   8.740        267.50	    17.916
   8.760        283.33	    18.439
   8.780        307.50	    19.209
   8.800        325.00	    19.748
   8.820        308.33	    19.235
   8.840        351.67	    20.543
   8.860        419.17	    22.428
   8.880        484.17	    24.104
   8.900        552.50	    25.749
   8.920        685.83	    28.688
   8.940        672.50	    28.408
   8.960        641.67	    27.749
   8.980        482.50	    24.062
   9.000        332.50	    19.975
   9.020        238.33	    16.912
   9.040        195.83	    15.330
   9.060        200.83	    15.524
   9.080        168.33	    14.213
   9.100        166.67	    14.142
   9.120        142.50	    13.077
   9.140        160.83	    13.892
   9.160        157.50	    13.748
   9.180        160.83	    13.892
   9.200        150.00	    13.416
   9.220        157.50	    13.748
   9.240        136.67	    12.806
   9.260        139.17	    12.923
   9.280        149.17	    13.379
   9.300        115.83	    11.790
   9.320        120.83	    12.042
   9.340        136.67	    12.806
   9.360        125.83	    12.288
   9.380        131.67	    12.570
   9.400        131.67	    12.570
   9.420        121.67	    12.083
   9.440        140.83	    13.000
   9.460        145.83	    13.229
   9.480        150.83	    13.454
   9.500        166.67	    14.142
   9.520        164.17	    14.036
   9.540        125.00	    12.247
   9.560        130.83	    12.530
   9.580        142.50	    13.077
   9.600        115.83	    11.790
   9.620        115.83	    11.790
   9.640        107.50	    11.358
   9.660         99.17	    10.909
   9.680         92.50	    10.536
   9.700        113.33	    11.662
   9.720        103.33	    11.136
   9.740         98.33	    10.863
   9.760        107.50	    11.358
   9.780         92.50	    10.536
   9.800        104.17	    11.180
   9.820         89.17	    10.344
   9.840        104.17	    11.180
   9.860        109.17	    11.446
   9.880         96.67	    10.770
   9.900        100.83	    11.000
   9.920        118.33	    11.916
   9.940         87.50	    10.247
   9.960         88.33	    10.296
   9.980         80.83	     9.849
  10.000        105.00	    11.225
  10.020         95.83	    10.724
  10.040         73.33	     9.381
  10.060         81.67	     9.899
  10.080         89.17	    10.344
  10.100         93.33	    10.583
  10.120         88.33	    10.296
  10.140         93.33	    10.583
  10.160         74.17	     9.434
  10.180         80.00	     9.798
  10.200         88.33	    10.296
  10.220         94.17	    10.630
  10.240         87.50	    10.247
  10.260         79.17	     9.747
  10.280         72.50	     9.327
  10.300        100.00	    10.954
  10.320         73.33	     9.381
  10.340         85.00	    10.100
  10.360        100.00	    10.954
  10.380         85.83	    10.149
  10.400         91.67	    10.488
  10.420         98.33	    10.863
  10.440        101.67	    11.045
  10.460         92.50	    10.536
  10.480        105.83	    11.269
  10.500        130.00	    12.490
  10.520        140.00	    12.961
  10.540        127.50	    12.369
  10.560        153.33	    13.565
  10.580        194.17	    15.264
  10.600        182.50	    14.799
  10.620        152.50	    13.528
  10.640        121.67	    12.083
  10.660        107.50	    11.358
  10.680        100.83	    11.000
  10.700         95.00	    10.677
  10.720         92.50	    10.536
  10.740         90.00	    10.392
  10.760         82.50	     9.950
  10.780         82.50	     9.950
  10.800         96.67	    10.770
  10.820         87.50	    10.247
  10.840         77.50	     9.644
  10.860         73.33	     9.381
  10.880         77.50	     9.644
  10.900         91.67	    10.488
  10.920         75.83	     9.539
  10.940         70.00	     9.165
  10.960         78.33	     9.695
  10.980         82.50	     9.950
  11.000         82.50	     9.950
  11.020         91.67	    10.488
  11.040         80.00	     9.798
  11.060         79.17	     9.747
  11.080         69.17	     9.110
  11.100        105.83	    11.269
  11.120         90.00	    10.392
  11.140         79.17	     9.747
  11.160         74.17	     9.434
  11.180         72.50	     9.327
  11.200         71.67	     9.274
  11.220         75.00	     9.487
  11.240         94.17	    10.630
  11.260         63.33	     8.718
  11.280         84.17	    10.050
  11.300         86.67	    10.198
  11.320         88.33	    10.296
  11.340         90.83	    10.440
  11.360         74.17	     9.434
  11.380         75.83	     9.539
  11.400         86.67	    10.198
  11.420         97.50	    10.817
  11.440         84.17	    10.050
  11.460         78.33	     9.695
  11.480         80.00	     9.798
  11.500         85.00	    10.100
  11.520         75.83	     9.539
  11.540         77.50	     9.644
  11.560         74.17	     9.434
  11.580         72.50	     9.327
  11.600         80.00	     9.798
  11.620         74.17	     9.434
  11.640         98.33	    10.863
  11.660         75.00	     9.487
  11.680         87.50	    10.247
  11.700         87.50	    10.247
  11.720         87.50	    10.247
  11.740        100.83	    11.000
  11.760         85.00	    10.100
  11.780         96.67	    10.770
  11.800         91.67	    10.488
  11.820         88.33	    10.296
  11.840         99.17	    10.909
  11.860         79.17	     9.747
  11.880         86.67	    10.198
  11.900         95.83	    10.724
  11.920         89.17	    10.344
  11.940        102.50	    11.091
  11.960        100.83	    11.000
  11.980        109.17	    11.446
  12.000        103.33	    11.136
  12.020        133.33	    12.649
  12.040        117.50	    11.874
  12.060        140.83	    13.000
  12.080        150.00	    13.416
  12.100        140.00	    12.961
  12.120        162.50	    13.964
  12.140        212.50	    15.969
  12.160        250.00	    17.321
  12.180        338.33	    20.149
  12.200        473.33	    23.833
  12.220        625.00	    27.386
  12.240        811.67	    31.209
  12.260        883.33	    32.558
  12.280        740.83	    29.816
  12.300        548.33	    25.652
  12.320        338.33	    20.149
  12.340        279.17	    18.303
  12.360        266.67	    17.889
  12.380        267.50	    17.916
  12.400        331.67	    19.950
  12.420        310.00	    19.287
  12.440        292.50	    18.735
  12.460        324.17	    19.723
  12.480        304.17	    19.105
  12.500        410.00	    22.181
  12.520        480.83	    24.021
  12.540        525.83	    25.120
  12.560        547.50	    25.632
  12.580        526.67	    25.140
  12.600        371.67	    21.119
  12.620        255.83	    17.521
  12.640        182.50	    14.799
  12.660        149.17	    13.379
  12.680        110.00	    11.489
  12.700        120.83	    12.042
  12.720        102.50	    11.091
  12.740        112.50	    11.619
  12.760        105.83	    11.269
  12.780        105.83	    11.269
  12.800         94.17	    10.630
  12.820         94.17	    10.630
  12.840         99.17	    10.909
  12.860         83.33	    10.000
  12.880         79.17	     9.747
  12.900         99.17	    10.909
  12.920         78.33	     9.695
  12.940         81.67	     9.899
  12.960         80.00	     9.798
  12.980         65.83	     8.888
  13.000         70.00	     9.165
  13.020         74.17	     9.434
  13.040         66.67	     8.944
  13.060         85.00	    10.100
  13.080         66.67	     8.944
  13.100         77.50	     9.644
  13.120         76.67	     9.592
  13.140         65.83	     8.888
  13.160         61.67	     8.602
  13.180         65.00	     8.832
  13.200         70.00	     9.165
  13.220         73.33	     9.381
  13.240         77.50	     9.644
  13.260         80.00	     9.798
  13.280         81.67	     9.899
  13.300         60.00	     8.485
  13.320         54.17	     8.062
  13.340         68.33	     9.055
  13.360         69.17	     9.110
  13.380         85.83	    10.149
  13.400         85.00	    10.100
  13.420         80.83	     9.849
  13.440         82.50	     9.950
  13.460         80.83	     9.849
  13.480         63.33	     8.718
  13.500         69.17	     9.110
  13.520         60.83	     8.544
  13.540         72.50	     9.327
  13.560         59.17	     8.426
  13.580         66.67	     8.944
  13.600         73.33	     9.381
  13.620         61.67	     8.602
  13.640         61.67	     8.602
  13.660         69.17	     9.110
  13.680         70.83	     9.220
  13.700         68.33	     9.055
  13.720         69.17	     9.110
  13.740         74.17	     9.434
  13.760         53.33	     8.000
  13.780         80.83	     9.849
  13.800         63.33	     8.718
  13.820         72.50	     9.327
  13.840         71.67	     9.274
  13.860         74.17	     9.434
  13.880         87.50	    10.247
  13.900         94.17	    10.630
  13.920         93.33	    10.583
  13.940         95.00	    10.677
  13.960         88.33	    10.296
  13.980         80.00	     9.798
  14.000         74.17	     9.434
  14.020         68.33	     9.055
  14.040         73.33	     9.381
  14.060         63.33	     8.718
  14.080         85.00	    10.100
  14.100         61.67	     8.602
  14.120         69.17	     9.110
  14.140         65.83	     8.888
  14.160         62.50	     8.660
  14.180         55.83	     8.185
  14.200         60.83	     8.544
  14.220         50.83	     7.810
  14.240         68.33	     9.055
  14.260         60.83	     8.544
  14.280         61.67	     8.602
  14.300         50.00	     7.746
  14.320         46.67	     7.483
  14.340         66.67	     8.944
  14.360         50.00	     7.746
  14.380         55.00	     8.124
  14.400         63.33	     8.718
  14.420         47.50	     7.550
  14.440         43.33	     7.211
  14.460         63.33	     8.718
  14.480         45.00	     7.348
  14.500         60.00	     8.485
  14.520         47.50	     7.550
  14.540         55.83	     8.185
  14.560         40.83	     7.000
  14.580         50.83	     7.810
  14.600         52.50	     7.937
  14.620         60.00	     8.485
  14.640         55.83	     8.185
  14.660         49.17	     7.681
  14.680         55.00	     8.124
  14.700         50.00	     7.746
  14.720         43.33	     7.211
  14.740         47.50	     7.550
  14.760         55.00	     8.124
  14.780         50.83	     7.810
  14.800         49.17	     7.681
  14.820         66.67	     8.944
  14.840         48.33	     7.616
  14.860         50.83	     7.810
  14.880         48.33	     7.616
  14.900         49.17	     7.681
  14.920         61.67	     8.602
  14.940         62.50	     8.660
  14.960         60.83	     8.544
  14.980         60.83	     8.544
  15.000         47.50	     7.550
  15.020         67.50	     9.000
  15.040         70.00	     9.165
  15.060         51.67	     7.874
  15.080         72.50	     9.327
  15.100         80.83	     9.849
  15.120         66.67	     8.944
  15.140         45.00	     7.348
  15.160         63.33	     8.718
  15.180         61.67	     8.602
  15.200         56.67	     8.246
  15.220         43.33	     7.211
  15.240         55.00	     8.124
  15.260         53.33	     8.000
  15.280         49.17	     7.681
  15.300         45.83	     7.416
  15.320         40.83	     7.000
  15.340         37.50	     6.708
  15.360         48.33	     7.616
  15.380         45.00	     7.348
  15.400         59.17	     8.426
  15.420         48.33	     7.616
  15.440         41.67	     7.071
  15.460         53.33	     8.000
  15.480         49.17	     7.681
  15.500         37.50	     6.708
  15.520         53.33	     8.000
  15.540         46.67	     7.483
  15.560         47.50	     7.550
  15.580         50.83	     7.810
  15.600         45.83	     7.416
  15.620         48.33	     7.616
  15.640         54.17	     8.062
  15.660         54.17	     8.062
  15.680         41.67	     7.071
  15.700         52.50	     7.937
  15.720         41.67	     7.071
  15.740         39.17	     6.856
  15.760         48.33	     7.616
  15.780         41.67	     7.071
  15.800         38.33	     6.782
  15.820         52.50	     7.937
  15.840         51.67	     7.874
  15.860         70.00	     9.165
  15.880         65.83	     8.888
  15.900         64.17	     8.775
  15.920         74.17	     9.434
  15.940         49.17	     7.681
  15.960         53.33	     8.000
  15.980         45.00	     7.348
  16.000         40.00	     6.928
  16.020         49.17	     7.681
  16.040         50.00	     7.746
  16.060         45.83	     7.416
  16.080         39.17	     6.856
  16.100         45.83	     7.416
  16.120         48.33	     7.616
  16.140         44.17	     7.280
  16.160         45.00	     7.348
  16.180         36.67	     6.633
  16.200         38.33	     6.782
  16.220         50.00	     7.746
  16.240         38.33	     6.782
  16.260         40.00	     6.928
  16.280         50.00	     7.746
  16.300         40.83	     7.000
  16.320         42.50	     7.141
  16.340         49.17	     7.681
  16.360         45.00	     7.348
  16.380         46.67	     7.483
  16.400         50.00	     7.746
  16.420         38.33	     6.782
  16.440         28.33	     5.831
  16.460         47.50	     7.550
  16.480         40.83	     7.000
  16.500         42.50	     7.141
  16.520         45.83	     7.416
  16.540         47.50	     7.550
  16.560         51.67	     7.874
  16.580         47.50	     7.550
  16.600         42.50	     7.141
  16.620         51.67	     7.874
  16.640         45.83	     7.416
  16.660         54.17	     8.062
  16.680         29.17	     5.916
  16.700         48.33	     7.616
  16.720         59.17	     8.426
  16.740         45.00	     7.348
  16.760         38.33	     6.782
  16.780         34.17	     6.403
  16.800         40.00	     6.928
  16.820         45.83	     7.416
  16.840         45.00	     7.348
  16.860         49.17	     7.681
  16.880         57.50	     8.307
  16.900         35.83	     6.557
  16.920         46.67	     7.483
  16.940         53.33	     8.000
  16.960         55.83	     8.185
  16.980         41.67	     7.071
  17.000         47.50	     7.550
  17.020         48.33	     7.616
  17.040         50.83	     7.810
  17.060         55.00	     8.124
  17.080         48.33	     7.616
  17.100         41.67	     7.071
  17.120         46.67	     7.483
  17.140         58.33	     8.367
  17.160         47.50	     7.550
  17.180         52.50	     7.937
  17.200         50.83	     7.810
  17.220         45.83	     7.416
  17.240         50.00	     7.746
  17.260         49.17	     7.681
  17.280         38.33	     6.782
  17.300         57.50	     8.307
  17.320         52.50	     7.937
  17.340         60.83	     8.544
  17.360         47.50	     7.550
  17.380         41.67	     7.071
  17.400         55.83	     8.185
  17.420         46.67	     7.483
  17.440         60.00	     8.485
  17.460         62.50	     8.660
  17.480         47.50	     7.550
  17.500         49.17	     7.681
  17.520         49.17	     7.681
  17.540         54.17	     8.062
  17.560         46.67	     7.483
  17.580         48.33	     7.616
  17.600         47.50	     7.550
  17.620         63.33	     8.718
  17.640         68.33	     9.055
  17.660         58.33	     8.367
  17.680         75.83	     9.539
  17.700         79.17	     9.747
  17.720         77.50	     9.644
  17.740         97.50	    10.817
  17.760         93.33	    10.583
  17.780        112.50	    11.619
  17.800        175.00	    14.491
  17.820        209.17	    15.843
  17.840        240.83	    17.000
  17.860        239.17	    16.941
  17.880        257.50	    17.578
  17.900        248.33	    17.263
  17.920        235.83	    16.823
  17.940        155.00	    13.638
  17.960        115.83	    11.790
  17.980        107.50	    11.358
  18.000         82.50	     9.950
  18.020         85.00	    10.100
  18.040         89.17	    10.344
  18.060         65.00	     8.832
  18.080         79.17	     9.747
  18.100         73.33	     9.381
  18.120         69.17	     9.110
  18.140         66.67	     8.944
  18.160         60.83	     8.544
  18.180         59.17	     8.426
  18.200         62.50	     8.660
  18.220         58.33	     8.367
  18.240         60.83	     8.544
  18.260         45.83	     7.416
  18.280         47.50	     7.550
  18.300         47.50	     7.550
  18.320         41.67	     7.071
  18.340         56.67	     8.246
  18.360         50.83	     7.810
  18.380         54.17	     8.062
  18.400         52.50	     7.937
  18.420         54.17	     8.062
  18.440         65.00	     8.832
  18.460         70.00	     9.165
  18.480         68.33	     9.055
  18.500         70.00	     9.165
  18.520         74.17	     9.434
  18.540         76.67	     9.592
  18.560         79.17	     9.747
  18.580         80.00	     9.798
  18.600        110.83	    11.533
  18.620        109.17	    11.446
  18.640        100.83	    11.000
  18.660         86.67	    10.198
  18.680        110.00	    11.489
  18.700        101.67	    11.045
  18.720         93.33	    10.583
  18.740        105.00	    11.225
  18.760        130.83	    12.530
  18.780        133.33	    12.649
  18.800        204.17	    15.652
  18.820        197.50	    15.395
  18.840        258.33	    17.607
  18.860        223.33	    16.371
  18.880        227.50	    16.523
  18.900        141.67	    13.038
  18.920        124.17	    12.207
  18.940        110.83	    11.533
  18.960         89.17	    10.344
  18.980         90.00	    10.392
  19.000         82.50	     9.950
  19.020         80.00	     9.798
  19.040         66.67	     8.944
  19.060         80.00	     9.798
  19.080         44.17	     7.280
  19.100         68.33	     9.055
  19.120         68.33	     9.055
  19.140         64.17	     8.775
  19.160         57.50	     8.307
  19.180         52.50	     7.937
  19.200         60.83	     8.544
  19.220         73.33	     9.381
  19.240         70.83	     9.220
  19.260         71.67	     9.274
  19.280         80.00	     9.798
  19.300         55.83	     8.185
  19.320         67.50	     9.000
  19.340         67.50	     9.000
  19.360         71.67	     9.274
  19.380         71.67	     9.274
  19.400         80.00	     9.798
  19.420         70.00	     9.165
  19.440         66.67	     8.944
  19.460         48.33	     7.616
  19.480         58.33	     8.367
  19.500         65.00	     8.832
  19.520         66.67	     8.944
  19.540         58.33	     8.367
  19.560         45.83	     7.416
  19.580         64.17	     8.775
  19.600         65.83	     8.888
  19.620         69.17	     9.110
  19.640         55.00	     8.124
  19.660         70.83	     9.220
  19.680         86.67	    10.198
  19.700         85.83	    10.149
  19.720         75.00	     9.487
  19.740         81.67	     9.899
  19.760         95.00	    10.677
  19.780         90.00	    10.392
  19.800         86.67	    10.198
  19.820        102.50	    11.091
  19.840         89.17	    10.344
  19.860        111.67	    11.576
  19.880        115.00	    11.747
  19.900        141.67	    13.038
  19.920        121.67	    12.083
  19.940        111.67	    11.576
  19.960        107.50	    11.358
  19.980        101.67	    11.045
  20.000         82.50	     9.950
  20.020         80.00	     9.798
  20.040         76.67	     9.592
  20.060         69.17	     9.110
  20.080         76.67	     9.592
  20.100         74.17	     9.434
  20.120         45.83	     7.416
  20.140         65.83	     8.888
  20.160         75.83	     9.539
  20.180         62.50	     8.660
  20.200         61.67	     8.602
  20.220         66.67	     8.944
  20.240         55.83	     8.185
  20.260         52.50	     7.937
  20.280         57.50	     8.307
  20.300         53.33	     8.000
  20.320         59.17	     8.426
  20.340         58.33	     8.367
  20.360         60.00	     8.485
  20.380         45.00	     7.348
  20.400         47.50	     7.550
  20.420         67.50	     9.000
  20.440         48.33	     7.616
  20.460         50.83	     7.810
  20.480         50.83	     7.810
  20.500         48.33	     7.616
  20.520         55.83	     8.185
  20.540         52.50	     7.937
  20.560         60.83	     8.544
  20.580         65.00	     8.832
  20.600         55.00	     8.124
  20.620         44.17	     7.280
  20.640         65.00	     8.832
  20.660         74.17	     9.434
  20.680         55.00	     8.124
  20.700         65.83	     8.888
  20.720         56.67	     8.246
  20.740         60.00	     8.485
  20.760         55.83	     8.185
  20.780         85.83	    10.149
  20.800         77.50	     9.644
  20.820        102.50	    11.091
  20.840        119.17	    11.958
  20.860        150.83	    13.454
  20.880        205.83	    15.716
  20.900        298.33	    18.921
  20.920        324.17	    19.723
  20.940        230.83	    16.643
  20.960        229.17	    16.583
  20.980        169.17	    14.248
  21.000        159.17	    13.820
  21.020        160.83	    13.892
  21.040        167.50	    14.177
  21.060        157.50	    13.748
  21.080        140.83	    13.000
  21.100        126.67	    12.329
  21.120        114.17	    11.705
  21.140         95.00	    10.677
  21.160         74.17	     9.434
  21.180         73.33	     9.381
  21.200         60.00	     8.485
  21.220         73.33	     9.381
  21.240         70.00	     9.165
  21.260         64.17	     8.775
  21.280         66.67	     8.944
  21.300         60.00	     8.485
  21.320         65.83	     8.888
  21.340         62.50	     8.660
  21.360         55.00	     8.124
  21.380         57.50	     8.307
  21.400         53.33	     8.000
  21.420         60.00	     8.485
  21.440         55.00	     8.124
  21.460         50.83	     7.810
  21.480         53.33	     8.000
  21.500         61.67	     8.602
  21.520         53.33	     8.000
  21.540         49.17	     7.681
  21.560         48.33	     7.616
  21.580         59.17	     8.426
  21.600         59.17	     8.426
  21.620         68.33	     9.055
  21.640         78.33	     9.695
  21.660         67.50	     9.000
  21.680         55.83	     8.185
  21.700         62.50	     8.660
  21.720         53.33	     8.000
  21.740         50.00	     7.746
  21.760         42.50	     7.141
  21.780         66.67	     8.944
  21.800         52.50	     7.937
  21.820         50.83	     7.810
  21.840         48.33	     7.616
  21.860         55.00	     8.124
  21.880         64.17	     8.775
  21.900         65.00	     8.832
  21.920         65.00	     8.832
  21.940         60.00	     8.485
  21.960         60.00	     8.485
  21.980         83.33	    10.000
  22.000         77.50	     9.644
  22.020         94.17	    10.630
  22.040        156.67	    13.711
  22.060        200.00	    15.492
  22.080        281.67	    18.385
  22.100        295.00	    18.815
  22.120        273.33	    18.111
  22.140        210.83	    15.906
  22.160        151.67	    13.491
  22.180        130.00	    12.490
  22.200        117.50	    11.874
  22.220         89.17	    10.344
  22.240         75.00	     9.487
  22.260         76.67	     9.592
  22.280         66.67	     8.944
  22.300         67.50	     9.000
  22.320         55.00	     8.124
  22.340         57.50	     8.307
  22.360         67.50	     9.000
  22.380         61.67	     8.602
  22.400         50.00	     7.746
  22.420         58.33	     8.367
  22.440         68.33	     9.055
  22.460         63.33	     8.718
  22.480         73.33	     9.381
  22.500         65.00	     8.832
  22.520         73.33	     9.381
  22.540         75.83	     9.539
  22.560         75.00	     9.487
  22.580         62.50	     8.660
  22.600         88.33	    10.296
  22.620         66.67	     8.944
  22.640         60.00	     8.485
  22.660         59.17	     8.426
  22.680         59.17	     8.426
  22.700         48.33	     7.616
  22.720         50.00	     7.746
  22.740         55.83	     8.185
  22.760         47.50	     7.550
  22.780         61.67	     8.602
  22.800         58.33	     8.367
  22.820         55.83	     8.185
  22.840         73.33	     9.381
  22.860         66.67	     8.944
  22.880         82.50	     9.950
  22.900        111.67	    11.576
  22.920        115.00	    11.747
  22.940        115.00	    11.747
  22.960         84.17	    10.050
  22.980        110.83	    11.533
  23.000        130.83	    12.530
  23.020        105.00	    11.225
  23.040        127.50	    12.369
  23.060        105.00	    11.225
  23.080        110.83	    11.533
  23.100        113.33	    11.662
  23.120        109.17	    11.446
  23.140        104.17	    11.180
  23.160        103.33	    11.136
  23.180         87.50	    10.247
  23.200         73.33	     9.381
  23.220         68.33	     9.055
  23.240         67.50	     9.000
  23.260         70.83	     9.220
  23.280         55.83	     8.185
  23.300         55.83	     8.185
  23.320         69.17	     9.110
  23.340         65.83	     8.888
  23.360         60.83	     8.544
  23.380         63.33	     8.718
  23.400         65.00	     8.832
  23.420         60.00	     8.485
  23.440         73.33	     9.381
  23.460         73.33	     9.381
  23.480         70.83	     9.220
  23.500         86.67	    10.198
  23.520        106.67	    11.314
  23.540        115.00	    11.747
  23.560        171.67	    14.353
  23.580        202.50	    15.588
  23.600        225.83	    16.462
  23.620        218.33	    16.186
  23.640        218.33	    16.186
  23.660        187.50	    15.000
  23.680        189.17	    15.067
  23.700        172.50	    14.387
  23.720        140.00	    12.961
  23.740        141.67	    13.038
  23.760        115.00	    11.747
  23.780        104.17	    11.180
  23.800        107.50	    11.358
  23.820        105.00	    11.225
  23.840        118.33	    11.916
  23.860        101.67	    11.045
  23.880        130.00	    12.490
  23.900        108.33	    11.402
  23.920        102.50	    11.091
  23.940        100.83	    11.000
  23.960         95.00	    10.677
  23.980         96.67	    10.770
  24.000         88.33	    10.296
  24.020         86.67	    10.198
  24.040        102.50	    11.091
  24.060         86.67	    10.198
  24.080        115.83	    11.790
  24.100         91.67	    10.488
  24.120        107.50	    11.358
  24.140        105.83	    11.269
  24.160        131.67	    12.570
  24.180        110.00	    11.489
  24.200        119.17	    11.958
  24.220        152.50	    13.528
  24.240        133.33	    12.649
  24.260        133.33	    12.649
  24.280        156.67	    13.711
  24.300        152.50	    13.528
  24.320        187.50	    15.000
  24.340        200.00	    15.492
  24.360        215.83	    16.093
  24.380        190.00	    15.100
  24.400        196.67	    15.362
  24.420        135.83	    12.767
  24.440        155.83	    13.675
  24.460        135.00	    12.728
  24.480        133.33	    12.649
  24.500        151.67	    13.491
  24.520        141.67	    13.038
  24.540        165.83	    14.107
  24.560        226.67	    16.492
  24.580        297.50	    18.894
  24.600        386.67	    21.541
  24.620        440.83	    23.000
  24.640        513.33	    24.819
  24.660        540.00	    25.456
  24.680        607.50	    27.000
  24.700        492.50	    24.310
  24.720        486.67	    24.166
  24.740        434.17	    22.825
  24.760        366.67	    20.976
  24.780        325.00	    19.748
  24.800        266.67	    17.889
  24.820        255.83	    17.521
  24.840        210.83	    15.906
  24.860        215.83	    16.093
  24.880        170.00	    14.283
  24.900        175.00	    14.491
  24.920        174.17	    14.457
  24.940        165.00	    14.071
  24.960        178.33	    14.629
  24.980        172.50	    14.387
  25.000        156.67	    13.711
  25.020        174.17	    14.457
  25.040        147.50	    13.304
  25.060        159.17	    13.820
  25.080        175.83	    14.526
  25.100        200.83	    15.524
  25.120        244.17	    17.117
  25.140        254.17	    17.464
  25.160        295.83	    18.841
  25.180        376.67	    21.260
  25.200        440.83	    23.000
  25.220        423.33	    22.539
  25.240        392.50	    21.703
  25.260        353.33	    20.591
  25.280        294.17	    18.788
  25.300        205.83	    15.716
  25.320        188.33	    15.033
  25.340        177.50	    14.595
  25.360        160.83	    13.892
  25.380        134.17	    12.689
  25.400        149.17	    13.379
  25.420        159.17	    13.820
  25.440        190.83	    15.133
  25.460        175.83	    14.526
  25.480        195.00	    15.297
  25.500        197.50	    15.395
  25.520        205.00	    15.684
  25.540        235.00	    16.793
  25.560        219.17	    16.217
  25.580        216.67	    16.125
  25.600        201.67	    15.556
  25.620        181.67	    14.765
  25.640        173.33	    14.422
  25.660        206.67	    15.748
  25.680        207.50	    15.780
  25.700        155.83	    13.675
  25.720        163.33	    14.000
  25.740        151.67	    13.491
  25.760        126.67	    12.329
  25.780        134.17	    12.689
  25.800         94.17	    10.630
  25.820         91.67	    10.488
  25.840         91.67	    10.488
  25.860         95.83	    10.724
  25.880         90.00	    10.392
  25.900         72.50	     9.327
  25.920         92.50	    10.536
  25.940         85.00	    10.100
  25.960         89.17	    10.344
  25.980         85.00	    10.100
  26.000         85.83	    10.149
  26.020         93.33	    10.583
  26.040         85.00	    10.100
  26.060         75.83	     9.539
  26.080         69.17	     9.110
  26.100        101.67	    11.045
  26.120         90.83	    10.440
  26.140        101.67	    11.045
  26.160         95.83	    10.724
  26.180        109.17	    11.446
  26.200        108.33	    11.402
  26.220        116.67	    11.832
  26.240        109.17	    11.446
  26.260        113.33	    11.662
  26.280        120.00	    12.000
  26.300        140.83	    13.000
  26.320        139.17	    12.923
  26.340        144.17	    13.153
  26.360        164.17	    14.036
  26.380        172.50	    14.387
  26.400        182.50	    14.799
  26.420        197.50	    15.395
  26.440        264.17	    17.804
  26.460        278.33	    18.276
  26.480        266.67	    17.889
  26.500        297.50	    18.894
  26.520        276.67	    18.221
  26.540        290.83	    18.682
  26.560        309.17	    19.261
  26.580        333.33	    20.000
  26.600        379.17	    21.331
  26.620        474.17	    23.854
  26.640        655.00	    28.036
  26.660       1043.33	    35.384
  26.680       1365.00	    40.472
  26.700       1520.83	    42.720
  26.720       1369.17	    40.534
  26.740       1118.33	    36.633
  26.760       1015.83	    34.914
  26.780        845.00	    31.843
  26.800        619.17	    27.258
  26.820        495.83	    24.393
  26.840        563.33	    26.000
  26.860        599.17	    26.814
  26.880        685.00	    28.671
  26.900        650.83	    27.946
  26.920        739.17	    29.783
  26.940        720.00	    29.394
  26.960        619.17	    27.258
  26.980        523.33	    25.060
  27.000        455.83	    23.388
  27.020        366.67	    20.976
  27.040        277.50	    18.248
  27.060        250.00	    17.321
  27.080        219.17	    16.217
  27.100        205.83	    15.716
  27.120        175.83	    14.526
  27.140        178.33	    14.629
  27.160        162.50	    13.964
  27.180        161.67	    13.928
  27.200        120.83	    12.042
  27.220        129.17	    12.450
  27.240        120.83	    12.042
  27.260        127.50	    12.369
  27.280        107.50	    11.358
  27.300        130.00	    12.490
  27.320        110.83	    11.533
  27.340        106.67	    11.314
  27.360        107.50	    11.358
  27.380         95.83	    10.724
  27.400        110.83	    11.533
  27.420        112.50	    11.619
  27.440        128.33	    12.410
  27.460        128.33	    12.410
  27.480        156.67	    13.711
  27.500        151.67	    13.491
  27.520        187.50	    15.000
  27.540        217.50	    16.155
  27.560        235.00	    16.793
  27.580        232.50	    16.703
  27.600        200.00	    15.492
  27.620        198.33	    15.427
  27.640        165.00	    14.071
  27.660        155.83	    13.675
  27.680        132.50	    12.610
  27.700        145.83	    13.229
  27.720        179.17	    14.663
  27.740        250.83	    17.349
  27.760        285.83	    18.520
  27.780        318.33	    19.545
  27.800        361.67	    20.833
  27.820        349.17	    20.469
  27.840        348.33	    20.445
  27.860        321.67	    19.647
  27.880        350.83	    20.518
  27.900        388.33	    21.587
  27.920        425.83	    22.605
  27.940        506.67	    24.658
  27.960        608.33	    27.019
  27.980        626.67	    27.423
  28.000        603.33	    26.907
  28.020        552.50	    25.749
  28.040        513.33	    24.819
  28.060        412.50	    22.249
  28.080        298.33	    18.921
  28.100        268.33	    17.944
  28.120        235.00	    16.793
  28.140        195.83	    15.330
  28.160        215.00	    16.062
  28.180        190.83	    15.133
  28.200        205.83	    15.716
  28.220        176.67	    14.560
  28.240        185.83	    14.933
  28.260        151.67	    13.491
  28.280        160.00	    13.856
  28.300        140.00	    12.961
  28.320        142.50	    13.077
  28.340        173.33	    14.422
  28.360        183.33	    14.832
  28.380        138.33	    12.884
  28.400        150.00	    13.416
  28.420        145.00	    13.191
  28.440        117.50	    11.874
  28.460         99.17	    10.909
  28.480         97.50	    10.817
  28.500        104.17	    11.180
  28.520        107.50	    11.358
  28.540         90.83	    10.440
  28.560         98.33	    10.863
  28.580        136.67	    12.806
  28.600        135.00	    12.728
  28.620        149.17	    13.379
  28.640        180.83	    14.731
  28.660        197.50	    15.395
  28.680        195.83	    15.330
  28.700        200.83	    15.524
  28.720        179.17	    14.663
  28.740        177.50	    14.595
  28.760        185.83	    14.933
  28.780        135.83	    12.767
  28.800        119.17	    11.958
  28.820        133.33	    12.649
  28.840        113.33	    11.662
  28.860        117.50	    11.874
  28.880         87.50	    10.247
  28.900         93.33	    10.583
  28.920         78.33	     9.695
  28.940         76.67	     9.592
  28.960         75.83	     9.539
  28.980         69.17	     9.110
  29.000         76.67	     9.592
  29.020         48.33	     7.616
  29.040         56.67	     8.246
  29.060         68.33	     9.055
  29.080         59.17	     8.426
  29.100         47.50	     7.550
  29.120         64.17	     8.775
  29.140         53.33	     8.000
  29.160         54.17	     8.062
  29.180         54.17	     8.062
  29.200         50.83	     7.810
  29.220         62.50	     8.660
  29.240         56.67	     8.246
  29.260         53.33	     8.000
  29.280         49.17	     7.681
  29.300         45.83	     7.416
  29.320         65.00	     8.832
  29.340         60.00	     8.485
  29.360         50.00	     7.746
  29.380         48.33	     7.616
  29.400         51.67	     7.874
  29.420         61.67	     8.602
  29.440         47.50	     7.550
  29.460         54.17	     8.062
  29.480         55.83	     8.185
  29.500         70.83	     9.220
  29.520         68.33	     9.055
  29.540         55.00	     8.124
  29.560         48.33	     7.616
  29.580         55.00	     8.124
  29.600         55.83	     8.185
  29.620         68.33	     9.055
  29.640         79.17	     9.747
  29.660         59.17	     8.426
  29.680         61.67	     8.602
  29.700         74.17	     9.434
  29.720         68.33	     9.055
  29.740         77.50	     9.644
  29.760         85.83	    10.149
  29.780         91.67	    10.488
  29.800         97.50	    10.817
  29.820        109.17	    11.446
  29.840        126.67	    12.329
  29.860        140.00	    12.961
  29.880        184.17	    14.866
  29.900        219.17	    16.217
  29.920        215.00	    16.062
  29.940        230.00	    16.613
  29.960        187.50	    15.000
  29.980        215.00	    16.062
  30.000        194.17	    15.264
  30.020        160.83	    13.892
  30.040        150.83	    13.454
  30.060        155.83	    13.675
  30.080        116.67	    11.832
  30.100        135.00	    12.728
  30.120        146.67	    13.266
  30.140        120.83	    12.042
  30.160        135.00	    12.728
  30.180        122.50	    12.124
  30.200        117.50	    11.874
  30.220        129.17	    12.450
  30.240        124.17	    12.207
  30.260        120.83	    12.042
  30.280        136.67	    12.806
  30.300         99.17	    10.909
  30.320        103.33	    11.136
  30.340        119.17	    11.958
  30.360        114.17	    11.705
  30.380        105.83	    11.269
  30.400        136.67	    12.806
  30.420         97.50	    10.817
  30.440        112.50	    11.619
  30.460        128.33	    12.410
  30.480        151.67	    13.491
  30.500        155.83	    13.675
  30.520        152.50	    13.528
  30.540        153.33	    13.565
  30.560        155.83	    13.675
  30.580        126.67	    12.329
  30.600        111.67	    11.576
  30.620        102.50	    11.091
  30.640        108.33	    11.402
  30.660         93.33	    10.583
  30.680         81.67	     9.899
  30.700         75.00	     9.487
  30.720         79.17	     9.747
  30.740         75.00	     9.487
  30.760         68.33	     9.055
  30.780         67.50	     9.000
  30.800         76.67	     9.592
  30.820         83.33	    10.000
  30.840        102.50	    11.091
  30.860         99.17	    10.909
  30.880         97.50	    10.817
  30.900        123.33	    12.166
  30.920         94.17	    10.630
  30.940        106.67	    11.314
  30.960        100.83	    11.000
  30.980         90.83	    10.440
  31.000         91.67	    10.488
  31.020         83.33	    10.000
  31.040         71.67	     9.274
  31.060         75.00	     9.487
  31.080         93.33	    10.583
  31.100        100.83	    11.000
  31.120        105.83	    11.269
  31.140         91.67	    10.488
  31.160        103.33	    11.136
  31.180        100.00	    10.954
  31.200        114.17	    11.705
  31.220        119.17	    11.958
  31.240        150.83	    13.454
  31.260        152.50	    13.528
  31.280        176.67	    14.560
  31.300        203.33	    15.620
  31.320        195.83	    15.330
  31.340        175.83	    14.526
  31.360        145.83	    13.229
  31.380        150.00	    13.416
  31.400        133.33	    12.649
  31.420        128.33	    12.410
  31.440        105.83	    11.269
  31.460        107.50	    11.358
  31.480         85.00	    10.100
  31.500         82.50	     9.950
  31.520        103.33	    11.136
  31.540        106.67	    11.314
  31.560         92.50	    10.536
  31.580         97.50	    10.817
  31.600        100.00	    10.954
  31.620        118.33	    11.916
  31.640        100.00	    10.954
  31.660        123.33	    12.166
  31.680         99.17	    10.909
  31.700         91.67	    10.488
  31.720        110.83	    11.533
  31.740         80.83	     9.849
  31.760         70.83	     9.220
  31.780         71.67	     9.274
  31.800         77.50	     9.644
  31.820         57.50	     8.307
  31.840         67.50	     9.000
  31.860         70.83	     9.220
  31.880         62.50	     8.660
  31.900         69.17	     9.110
  31.920         64.17	     8.775
  31.940         71.67	     9.274
  31.960         70.00	     9.165
  31.980         90.83	    10.440
  32.000         80.83	     9.849
  32.020         90.83	    10.440
  32.040         76.67	     9.592
  32.060        108.33	    11.402
  32.080        124.17	    12.207
  32.100        109.17	    11.446
  32.120        130.00	    12.490
  32.140        135.83	    12.767
  32.160        112.50	    11.619
  32.180        122.50	    12.124
  32.200        110.83	    11.533
  32.220        107.50	    11.358
  32.240         86.67	    10.198
  32.260         95.83	    10.724
  32.280        129.17	    12.450
  32.300         93.33	    10.583
  32.320         90.00	    10.392
  32.340         85.83	    10.149
  32.360         74.17	     9.434
  32.380         68.33	     9.055
  32.400         65.00	     8.832
  32.420         66.67	     8.944
  32.440         45.83	     7.416
  32.460         51.67	     7.874
  32.480         46.67	     7.483
  32.500         45.83	     7.416
  32.520         50.00	     7.746
  32.540         36.67	     6.633
  32.560         50.00	     7.746
  32.580         46.67	     7.483
  32.600         44.17	     7.280
  32.620         47.50	     7.550
  32.640         48.33	     7.616
  32.660         62.50	     8.660
  32.680         32.50	     6.245
  32.700         45.00	     7.348
  32.720         41.67	     7.071
  32.740         59.17	     8.426
  32.760         37.50	     6.708
  32.780         41.67	     7.071
  32.800         57.50	     8.307
  32.820         45.83	     7.416
  32.840         55.00	     8.124
  32.860         56.67	     8.246
  32.880         41.67	     7.071
  32.900         45.83	     7.416
  32.920         56.67	     8.246
  32.940         53.33	     8.000
  32.960         62.50	     8.660
  32.980         64.17	     8.775
  33.000         54.17	     8.062
  33.020         58.33	     8.367
  33.040         60.00	     8.485
  33.060         70.00	     9.165
  33.080         92.50	    10.536
  33.100        109.17	    11.446
  33.120        108.33	    11.402
  33.140         88.33	    10.296
  33.160        111.67	    11.576
  33.180        105.83	    11.269
  33.200         95.00	    10.677
  33.220         92.50	    10.536
  33.240         68.33	     9.055
  33.260         68.33	     9.055
  33.280         61.67	     8.602
  33.300         64.17	     8.775
  33.320         43.33	     7.211
  33.340         42.50	     7.141
  33.360         72.50	     9.327
  33.380         61.67	     8.602
  33.400         55.00	     8.124
  33.420         66.67	     8.944
  33.440         54.17	     8.062
  33.460         58.33	     8.367
  33.480         61.67	     8.602
  33.500         60.00	     8.485
  33.520         57.50	     8.307
  33.540         49.17	     7.681
  33.560         70.83	     9.220
  33.580         68.33	     9.055
  33.600         59.17	     8.426
  33.620         60.00	     8.485
  33.640         53.33	     8.000
  33.660         50.00	     7.746
  33.680         54.17	     8.062
  33.700         56.67	     8.246
  33.720         50.83	     7.810
  33.740         52.50	     7.937
  33.760         50.83	     7.810
  33.780         43.33	     7.211
  33.800         60.00	     8.485
  33.820         58.33	     8.367
  33.840         68.33	     9.055
  33.860         54.17	     8.062
  33.880         63.33	     8.718
  33.900         62.50	     8.660
  33.920         64.17	     8.775
  33.940         70.00	     9.165
  33.960         75.83	     9.539
  33.980         76.67	     9.592
  34.000         65.83	     8.888
  34.020         84.17	    10.050
  34.040         72.50	     9.327
  34.060         78.33	     9.695
  34.080         76.67	     9.592
  34.100         83.33	    10.000
  34.120         84.17	    10.050
  34.140         73.33	     9.381
  34.160         96.67	    10.770
  34.180         91.67	    10.488
  34.200         70.83	     9.220
  34.220         60.00	     8.485
  34.240         75.00	     9.487
  34.260         63.33	     8.718
  34.280         73.33	     9.381
  34.300         70.83	     9.220
  34.320         69.17	     9.110
  34.340         70.83	     9.220
  34.360         82.50	     9.950
  34.380         79.17	     9.747
  34.400         85.00	    10.100
  34.420         93.33	    10.583
  34.440         92.50	    10.536
  34.460         98.33	    10.863
  34.480        109.17	    11.446
  34.500        115.83	    11.790
  34.520        107.50	    11.358
  34.540        110.83	    11.533
  34.560        135.83	    12.767
  34.580        133.33	    12.649
  34.600        131.67	    12.570
  34.620        126.67	    12.329
  34.640        116.67	    11.832
  34.660        143.33	    13.115
  34.680        131.67	    12.570
  34.700        124.17	    12.207
  34.720        129.17	    12.450
  34.740        112.50	    11.619
  34.760        120.00	    12.000
  34.780        109.17	    11.446
  34.800        117.50	    11.874
  34.820        117.50	    11.874
  34.840        102.50	    11.091
  34.860        100.00	    10.954
  34.880        110.83	    11.533
  34.900        116.67	    11.832
  34.920        136.67	    12.806
  34.940        134.17	    12.689
  34.960        166.67	    14.142
  34.980        145.00	    13.191
  35.000        162.50	    13.964
  35.020        177.50	    14.595
  35.040        170.00	    14.283
  35.060        191.67	    15.166
  35.080        165.83	    14.107
  35.100        165.83	    14.107
  35.120        156.67	    13.711
  35.140        125.83	    12.288
  35.160        145.00	    13.191
  35.180        125.83	    12.288
  35.200        103.33	    11.136
  35.220        110.00	    11.489
  35.240        111.67	    11.576
  35.260         93.33	    10.583
  35.280        109.17	    11.446
  35.300         86.67	    10.198
  35.320        105.83	    11.269
  35.340         81.67	     9.899
  35.360         91.67	    10.488
  35.380         98.33	    10.863
  35.400        102.50	    11.091
  35.420         90.00	    10.392
  35.440         89.17	    10.344
  35.460        108.33	    11.402
  35.480        106.67	    11.314
  35.500        113.33	    11.662
  35.520        135.83	    12.767
  35.540        135.83	    12.767
  35.560        168.33	    14.213
  35.580        197.50	    15.395
  35.600        207.50	    15.780
  35.620        202.50	    15.588
  35.640        201.67	    15.556
  35.660        183.33	    14.832
  35.680        170.83	    14.318
  35.700        157.50	    13.748
  35.720        145.00	    13.191
  35.740        131.67	    12.570
  35.760        117.50	    11.874
  35.780        109.17	    11.446
  35.800        114.17	    11.705
  35.820         82.50	     9.950
  35.840         85.00	    10.100
  35.860         81.67	     9.899
  35.880         85.00	    10.100
  35.900         70.83	     9.220
  35.920         74.17	     9.434
  35.940         73.33	     9.381
  35.960         87.50	    10.247
  35.980         76.67	     9.592
  36.000         93.33	    10.583
  36.020         81.67	     9.899
  36.040         76.67	     9.592
  36.060         94.17	    10.630
  36.080         92.50	    10.536
  36.100        106.67	    11.314
  36.120        114.17	    11.705
  36.140         93.33	    10.583
  36.160        100.00	    10.954
  36.180        117.50	    11.874
  36.200         97.50	    10.817
  36.220         95.00	    10.677
  36.240         76.67	     9.592
  36.260         90.83	    10.440
  36.280         55.83	     8.185
  36.300         95.00	    10.677
  36.320         94.17	    10.630
  36.340         96.67	    10.770
  36.360        128.33	    12.410
  36.380        161.67	    13.928
  36.400        126.67	    12.329
  36.420        128.33	    12.410
  36.440        115.00	    11.747
  36.460        139.17	    12.923
  36.480        160.83	    13.892
  36.500        203.33	    15.620
  36.520        170.00	    14.283
  36.540        139.17	    12.923
  36.560        150.00	    13.416
  36.580        212.50	    15.969
  36.600        204.17	    15.652
  36.620        165.83	    14.107
  36.640        148.33	    13.342
  36.660        122.50	    12.124
  36.680        129.17	    12.450
  36.700        142.50	    13.077
  36.720        120.00	    12.000
  36.740        120.83	    12.042
  36.760        119.17	    11.958
  36.780        116.67	    11.832
  36.800        104.17	    11.180
  36.820         95.00	    10.677
  36.840         90.00	    10.392
  36.860         89.17	    10.344
  36.880         74.17	     9.434
  36.900         84.17	    10.050
  36.920         74.17	     9.434
  36.940         67.50	     9.000
  36.960         64.17	     8.775
  36.980         71.67	     9.274
  37.000         67.50	     9.000
  37.020         79.17	     9.747
  37.040         70.83	     9.220
  37.060         57.50	     8.307
  37.080         65.00	     8.832
  37.100         73.33	     9.381
  37.120         74.17	     9.434
  37.140         65.00	     8.832
  37.160         65.00	     8.832
  37.180         80.00	     9.798
  37.200         75.00	     9.487
  37.220         76.67	     9.592
  37.240         70.00	     9.165
  37.260         67.50	     9.000
  37.280         72.50	     9.327
  37.300         85.00	    10.100
  37.320         70.00	     9.165
  37.340         83.33	    10.000
  37.360         94.17	    10.630
  37.380         77.50	     9.644
  37.400         75.83	     9.539
  37.420         90.83	    10.440
  37.440         88.33	    10.296
  37.460         85.83	    10.149
  37.480        106.67	    11.314
  37.500         99.17	    10.909
  37.520        100.83	    11.000
  37.540         90.83	    10.440
  37.560         88.33	    10.296
  37.580         98.33	    10.863
  37.600         90.00	    10.392
  37.620        100.83	    11.000
  37.640        108.33	    11.402
  37.660        109.17	    11.446
  37.680        102.50	    11.091
  37.700        106.67	    11.314
  37.720        132.50	    12.610
  37.740        110.83	    11.533
  37.760        105.83	    11.269
  37.780        111.67	    11.576
  37.800        100.00	    10.954
  37.820        106.67	    11.314
  37.840         82.50	     9.950
  37.860         75.83	     9.539
  37.880         79.17	     9.747
  37.900         60.00	     8.485
  37.920         64.17	     8.775
  37.940         65.00	     8.832
  37.960         54.17	     8.062
  37.980         54.17	     8.062
  38.000         50.83	     7.810
  38.020         58.33	     8.367
  38.040         39.17	     6.856
  38.060         64.17	     8.775
  38.080         41.67	     7.071
  38.100         51.67	     7.874
  38.120         45.00	     7.348
  38.140         41.67	     7.071
  38.160         46.67	     7.483
  38.180         41.67	     7.071
  38.200         46.67	     7.483
  38.220         39.17	     6.856
  38.240         38.33	     6.782
  38.260         50.00	     7.746
  38.280         56.67	     8.246
  38.300         46.67	     7.483
  38.320         38.33	     6.782
  38.340         41.67	     7.071
  38.360         40.83	     7.000
  38.380         36.67	     6.633
  38.400         44.17	     7.280
  38.420         31.67	     6.164
  38.440         39.17	     6.856
  38.460         31.67	     6.164
  38.480         51.67	     7.874
  38.500         54.17	     8.062
  38.520         52.50	     7.937
  38.540         60.00	     8.485
  38.560         52.50	     7.937
  38.580         57.50	     8.307
  38.600         68.33	     9.055
  38.620         53.33	     8.000
  38.640         71.67	     9.274
  38.660         61.67	     8.602
  38.680         63.33	     8.718
  38.700         58.33	     8.367
  38.720         71.67	     9.274
  38.740         43.33	     7.211
  38.760         63.33	     8.718
  38.780         63.33	     8.718
  38.800         63.33	     8.718
  38.820         64.17	     8.775
  38.840         53.33	     8.000
  38.860         65.83	     8.888
  38.880         70.83	     9.220
  38.900         75.00	     9.487
  38.920         62.50	     8.660
  38.940         50.83	     7.810
  38.960         67.50	     9.000
  38.980         42.50	     7.141
  39.000         60.83	     8.544
  39.020         48.33	     7.616
  39.040         33.33	     6.325
  39.060         40.00	     6.928
  39.080         44.17	     7.280
  39.100         50.00	     7.746
  39.120         34.17	     6.403
  39.140         47.50	     7.550
  39.160         36.67	     6.633
  39.180         45.00	     7.348
  39.200         50.00	     7.746
  39.220         46.67	     7.483
  39.240         48.33	     7.616
  39.260         47.50	     7.550
  39.280         47.50	     7.550
  39.300         58.33	     8.367
  39.320         36.67	     6.633
  39.340         49.17	     7.681
  39.360         46.67	     7.483
  39.380         40.83	     7.000
  39.400         65.00	     8.832
  39.420         55.00	     8.124
  39.440         56.67	     8.246
  39.460         75.00	     9.487
  39.480         95.83	    10.724
  39.500        117.50	    11.874
  39.520        161.67	    13.928
  39.540        135.83	    12.767
  39.560         91.67	    10.488
  39.580         95.83	    10.724
  39.600         85.83	    10.149
  39.620        120.00	    12.000
  39.640        101.67	    11.045
  39.660         76.67	     9.592
  39.680         75.00	     9.487
  39.700         65.00	     8.832
  39.720         61.67	     8.602
  39.740         58.33	     8.367
  39.760         55.83	     8.185
  39.780         64.17	     8.775
  39.800         53.33	     8.000
  39.820         55.83	     8.185
  39.840         55.83	     8.185
  39.860         56.67	     8.246
  39.880         61.67	     8.602
  39.900         69.17	     9.110
  39.920         55.00	     8.124
  39.940         69.17	     9.110
  39.960         51.67	     7.874
  39.980         62.50	     8.660
  40.000         55.83	     8.185
  40.020         50.00	     7.746
  40.040         65.00	     8.832
  40.060         46.67	     7.483
  40.080         53.33	     8.000
  40.100         65.83	     8.888
  40.120         57.50	     8.307
  40.140         41.67	     7.071
  40.160         53.33	     8.000
  40.180         55.83	     8.185
  40.200         54.17	     8.062
  40.220         56.67	     8.246
  40.240         46.67	     7.483
  40.260         56.67	     8.246
  40.280         52.50	     7.937
  40.300         61.67	     8.602
  40.320         81.67	     9.899
  40.340         78.33	     9.695
  40.360         83.33	    10.000
  40.380         95.83	    10.724
  40.400         68.33	     9.055
  40.420         73.33	     9.381
  40.440         67.50	     9.000
  40.460         71.67	     9.274
  40.480         60.83	     8.544
  40.500         71.67	     9.274
  40.520         54.17	     8.062
  40.540         49.17	     7.681
  40.560         47.50	     7.550
  40.580         41.67	     7.071
  40.600         37.50	     6.708
  40.620         37.50	     6.708
  40.640         42.50	     7.141
  40.660         51.67	     7.874
  40.680         37.50	     6.708
  40.700         55.00	     8.124
  40.720         41.67	     7.071
  40.740         41.67	     7.071
  40.760         41.67	     7.071
  40.780         45.00	     7.348
  40.800         50.83	     7.810
  40.820         53.33	     8.000
  40.840         40.00	     6.928
  40.860         46.67	     7.483
  40.880         54.17	     8.062
  40.900         59.17	     8.426
  40.920         50.83	     7.810
  40.940         51.67	     7.874
  40.960         52.50	     7.937
  40.980         40.00	     6.928
  41.000         65.83	     8.888
  41.020         54.17	     8.062
  41.040         55.00	     8.124
  41.060         56.67	     8.246
  41.080         63.33	     8.718
  41.100         36.67	     6.633
  41.120         50.83	     7.810
  41.140         49.17	     7.681
  41.160         46.67	     7.483
  41.180         49.17	     7.681
  41.200         69.17	     9.110
  41.220         53.33	     8.000
  41.240         55.00	     8.124
  41.260         53.33	     8.000
  41.280         65.00	     8.832
  41.300         51.67	     7.874
  41.320         71.67	     9.274
  41.340         50.83	     7.810
  41.360         55.83	     8.185
  41.380         66.67	     8.944
  41.400         64.17	     8.775
  41.420         70.83	     9.220
  41.440         65.83	     8.888
  41.460         47.50	     7.550
  41.480         66.67	     8.944
  41.500         65.83	     8.888
  41.520         52.50	     7.937
  41.540         63.33	     8.718
  41.560         55.83	     8.185
  41.580         58.33	     8.367
  41.600         62.50	     8.660
  41.620         55.83	     8.185
  41.640         70.83	     9.220
  41.660         59.17	     8.426
  41.680         77.50	     9.644
  41.700         87.50	    10.247
  41.720         89.17	    10.344
  41.740         83.33	    10.000
  41.760         97.50	    10.817
  41.780        101.67	    11.045
  41.800         90.00	    10.392
  41.820         86.67	    10.198
  41.840         98.33	    10.863
  41.860         77.50	     9.644
  41.880         85.00	    10.100
  41.900         89.17	    10.344
  41.920         84.17	    10.050
  41.940         84.17	    10.050
  41.960         81.67	     9.899
  41.980         93.33	    10.583
  42.000         86.67	    10.198
  42.020         95.00	    10.677
  42.040        105.83	    11.269
  42.060        100.00	    10.954
  42.080         64.17	     8.775
  42.100         75.83	     9.539
  42.120         80.83	     9.849
  42.140         81.67	     9.899
  42.160         71.67	     9.274
  42.180         76.67	     9.592
  42.200         60.83	     8.544
  42.220         75.00	     9.487
  42.240         64.17	     8.775
  42.260         66.67	     8.944
  42.280         68.33	     9.055
  42.300         83.33	    10.000
  42.320         80.00	     9.798
  42.340         65.83	     8.888
  42.360         84.17	    10.050
  42.380         85.00	    10.100
  42.400         96.67	    10.770
  42.420         71.67	     9.274
  42.440        107.50	    11.358
  42.460        122.50	    12.124
  42.480        149.17	    13.379
  42.500        156.67	    13.711
  42.520        151.67	    13.491
  42.540        129.17	    12.450
  42.560        146.67	    13.266
  42.580        111.67	    11.576
  42.600        101.67	    11.045
  42.620         91.67	    10.488
  42.640        102.50	    11.091
  42.660         80.83	     9.849
  42.680         64.17	     8.775
  42.700         62.50	     8.660
  42.720         70.00	     9.165
  42.740         62.50	     8.660
  42.760         67.50	     9.000
  42.780         50.83	     7.810
  42.800         63.33	     8.718
  42.820         65.83	     8.888
  42.840         58.33	     8.367
  42.860         57.50	     8.307
  42.880         48.33	     7.616
  42.900         60.83	     8.544
  42.920         54.17	     8.062
  42.940         46.67	     7.483
  42.960         64.17	     8.775
  42.980         60.00	     8.485
  43.000         49.17	     7.681
  43.020         40.83	     7.000
  43.040         48.33	     7.616
  43.060         47.50	     7.550
  43.080         50.00	     7.746
  43.100         60.00	     8.485
  43.120         42.50	     7.141
  43.140         45.00	     7.348
  43.160         43.33	     7.211
  43.180         53.33	     8.000
  43.200         45.83	     7.416
  43.220         33.33	     6.325
  43.240         22.50	     5.196
  43.260         37.50	     6.708
  43.280         38.33	     6.782
  43.300         37.50	     6.708
  43.320         49.17	     7.681
  43.340         42.50	     7.141
  43.360         35.83	     6.557
  43.380         25.83	     5.568
  43.400         37.50	     6.708
  43.420         47.50	     7.550
  43.440         46.67	     7.483
  43.460         51.67	     7.874
  43.480         39.17	     6.856
  43.500         40.00	     6.928
  43.520         25.83	     5.568
  43.540         38.33	     6.782
  43.560         53.33	     8.000
  43.580         49.17	     7.681
  43.600         53.33	     8.000
  43.620         65.83	     8.888
  43.640         56.67	     8.246
  43.660         48.33	     7.616
  43.680         47.50	     7.550
  43.700         59.17	     8.426
  43.720         56.67	     8.246
  43.740         42.50	     7.141
  43.760         40.83	     7.000
  43.780         45.00	     7.348
  43.800         53.33	     8.000
  43.820         48.33	     7.616
  43.840         49.17	     7.681
  43.860         45.83	     7.416
  43.880         53.33	     8.000
  43.900         48.33	     7.616
  43.920         45.83	     7.416
  43.940         44.17	     7.280
  43.960         32.50	     6.245
  43.980         37.50	     6.708
  44.000         44.17	     7.280
  44.020         45.83	     7.416
  44.040         34.17	     6.403
  44.060         44.17	     7.280
  44.080         32.50	     6.245
  44.100         64.17	     8.775
  44.120         48.33	     7.616
  44.140         49.17	     7.681
  44.160         44.17	     7.280
  44.180         57.50	     8.307
  44.200         54.17	     8.062
  44.220         55.83	     8.185
  44.240         38.33	     6.782
  44.260         41.67	     7.071
  44.280         42.50	     7.141
  44.300         50.00	     7.746
  44.320         49.17	     7.681
  44.340         60.00	     8.485
  44.360         39.17	     6.856
  44.380         49.17	     7.681
  44.400         43.33	     7.211
  44.420         47.50	     7.550
  44.440         50.00	     7.746
  44.460         36.67	     6.633
  44.480         43.33	     7.211
  44.500         38.33	     6.782
  44.520         50.00	     7.746
  44.540         48.33	     7.616
  44.560         38.33	     6.782
  44.580         50.83	     7.810
  44.600         36.67	     6.633
  44.620         35.83	     6.557
  44.640         37.50	     6.708
  44.660         51.67	     7.874
  44.680         45.83	     7.416
  44.700         41.67	     7.071
  44.720         41.67	     7.071
  44.740         48.33	     7.616
  44.760         55.83	     8.185
  44.780         45.83	     7.416
  44.800         55.00	     8.124
  44.820         50.00	     7.746
  44.840         47.50	     7.550
  44.860         65.83	     8.888
  44.880         53.33	     8.000
  44.900         60.00	     8.485
  44.920         67.50	     9.000
  44.940         87.50	    10.247
  44.960         79.17	     9.747
  44.980         72.50	     9.327
  45.000         80.00	     9.798
  45.020         90.00	    10.392
  45.040         91.67	    10.488
  45.060         78.33	     9.695
  45.080         85.00	    10.100
  45.100         76.67	     9.592
  45.120         82.50	     9.950
  45.140         97.50	    10.817
  45.160         90.83	    10.440
  45.180         94.17	    10.630
  45.200        107.50	    11.358
  45.220         86.67	    10.198
  45.240         88.33	    10.296
  45.260         85.00	    10.100
  45.280         75.00	     9.487
  45.300         95.00	    10.677
  45.320         93.33	    10.583
  45.340         87.50	    10.247
  45.360         93.33	    10.583
  45.380         90.83	    10.440
  45.400        111.67	    11.576
  45.420        115.83	    11.790
  45.440        123.33	    12.166
  45.460        122.50	    12.124
  45.480        142.50	    13.077
  45.500        185.00	    14.900
  45.520        205.83	    15.716
  45.540        206.67	    15.748
  45.560        203.33	    15.620
  45.580        235.83	    16.823
  45.600        215.00	    16.062
  45.620        225.83	    16.462
  45.640        206.67	    15.748
  45.660        225.83	    16.462
  45.680        212.50	    15.969
  45.700        178.33	    14.629
  45.720        165.83	    14.107
  45.740        142.50	    13.077
  45.760        130.83	    12.530
  45.780        123.33	    12.166
  45.800        131.67	    12.570
  45.820        140.00	    12.961
  45.840        145.00	    13.191
  45.860        126.67	    12.329
  45.880         83.33	    10.000
  45.900         86.67	    10.198
  45.920         95.00	    10.677
  45.940         91.67	    10.488
  45.960         84.17	    10.050
  45.980         82.50	     9.950
  46.000         70.00	     9.165
  46.020         65.00	     8.832
  46.040         74.17	     9.434
  46.060         63.33	     8.718
  46.080         70.00	     9.165
  46.100         61.67	     8.602
  46.120         55.00	     8.124
  46.140         58.33	     8.367
  46.160         75.83	     9.539
  46.180         53.33	     8.000
  46.200         55.00	     8.124
  46.220         56.67	     8.246
  46.240         52.50	     7.937
  46.260         42.50	     7.141
  46.280         46.67	     7.483
  46.300         47.50	     7.550
  46.320         45.83	     7.416
  46.340         56.67	     8.246
  46.360         39.17	     6.856
  46.380         39.17	     6.856
  46.400         39.17	     6.856
  46.420         34.17	     6.403
  46.440         39.17	     6.856
  46.460         33.33	     6.325
  46.480         35.00	     6.481
  46.500         29.17	     5.916
  46.520         34.17	     6.403
  46.540         41.67	     7.071
  46.560         30.83	     6.083
  46.580         44.17	     7.280
  46.600         45.83	     7.416
  46.620         43.33	     7.211
  46.640         44.17	     7.280
  46.660         35.00	     6.481
  46.680         35.83	     6.557
  46.700         40.00	     6.928
  46.720         39.17	     6.856
  46.740         41.67	     7.071
  46.760         41.67	     7.071
  46.780         37.50	     6.708
  46.800         42.50	     7.141
  46.820         29.17	     5.916
  46.840         33.33	     6.325
  46.860         32.50	     6.245
  46.880         39.17	     6.856
  46.900         39.17	     6.856
  46.920         46.67	     7.483
  46.940         41.67	     7.071
  46.960         39.17	     6.856
  46.980         45.83	     7.416
  47.000         35.00	     6.481
  47.020         30.00	     6.000
  47.040         49.17	     7.681
  47.060         41.67	     7.071
  47.080         41.67	     7.071
  47.100         47.50	     7.550
  47.120         40.00	     6.928
  47.140         44.17	     7.280
  47.160         54.17	     8.062
  47.180         55.00	     8.124
  47.200         45.00	     7.348
  47.220         41.67	     7.071
  47.240         43.33	     7.211
  47.260         35.83	     6.557
  47.280         46.67	     7.483
  47.300         40.00	     6.928
  47.320         45.00	     7.348
  47.340         51.67	     7.874
  47.360         53.33	     8.000
  47.380         29.17	     5.916
  47.400         32.50	     6.245
  47.420         42.50	     7.141
  47.440         34.17	     6.403
  47.460         33.33	     6.325
  47.480         44.17	     7.280
  47.500         39.17	     6.856
  47.520         42.50	     7.141
  47.540         40.83	     7.000
  47.560         38.33	     6.782
  47.580         35.00	     6.481
  47.600         30.00	     6.000
  47.620         41.67	     7.071
  47.640         35.00	     6.481
  47.660         26.67	     5.657
  47.680         30.83	     6.083
  47.700         33.33	     6.325
  47.720         35.00	     6.481
  47.740         40.00	     6.928
  47.760         24.17	     5.385
  47.780         49.17	     7.681
  47.800         33.33	     6.325
  47.820         37.50	     6.708
  47.840         29.17	     5.916
  47.860         30.00	     6.000
  47.880         33.33	     6.325
  47.900         30.83	     6.083
  47.920         30.00	     6.000
  47.940         38.33	     6.782
  47.960         35.83	     6.557
  47.980         53.33	     8.000
  48.000         53.33	     8.000
  48.020         55.83	     8.185
  48.040         74.17	     9.434
  48.060         58.33	     8.367
  48.080         48.33	     7.616
  48.100         52.50	     7.937
  48.120         65.00	     8.832
  48.140         55.83	     8.185
  48.160         74.17	     9.434
  48.180         76.67	     9.592
  48.200         73.33	     9.381
  48.220         69.17	     9.110
  48.240         77.50	     9.644
  48.260         74.17	     9.434
  48.280         63.33	     8.718
  48.300         58.33	     8.367
  48.320         69.17	     9.110
  48.340         75.83	     9.539
  48.360        105.83	    11.269
  48.380         88.33	    10.296
  48.400         91.67	    10.488
  48.420         65.00	     8.832
  48.440         70.83	     9.220
  48.460         71.67	     9.274
  48.480         68.33	     9.055
  48.500         64.17	     8.775
  48.520         65.00	     8.832
  48.540         66.67	     8.944
  48.560         47.50	     7.550
  48.580         55.00	     8.124
  48.600         62.50	     8.660
  48.620         53.33	     8.000
  48.640         62.50	     8.660
  48.660         42.50	     7.141
  48.680         69.17	     9.110
  48.700         46.67	     7.483
  48.720         50.00	     7.746
  48.740         49.17	     7.681
  48.760         50.83	     7.810
  48.780         48.33	     7.616
  48.800         49.17	     7.681
  48.820         33.33	     6.325
  48.840         50.00	     7.746
  48.860         54.17	     8.062
  48.880         50.00	     7.746
  48.900         47.50	     7.550
  48.920         37.50	     6.708
  48.940         33.33	     6.325
  48.960         35.00	     6.481
  48.980         37.50	     6.708
  49.000         35.00	     6.481
  49.020         42.50	     7.141
  49.040         42.50	     7.141
  49.060         34.17	     6.403
  49.080         42.50	     7.141
  49.100         40.83	     7.000
  49.120         37.50	     6.708
  49.140         46.67	     7.483
  49.160         31.67	     6.164
  49.180         35.83	     6.557
  49.200         44.17	     7.280
  49.220         48.33	     7.616
  49.240         55.00	     8.124
  49.260         68.33	     9.055
  49.280         60.00	     8.485
  49.300         67.50	     9.000
  49.320         50.83	     7.810
  49.340         42.50	     7.141
  49.360         55.00	     8.124
  49.380         59.17	     8.426
  49.400         50.83	     7.810
  49.420         47.50	     7.550
  49.440         39.17	     6.856
  49.460         38.33	     6.782
  49.480         45.83	     7.416
  49.500         35.00	     6.481
  49.520         32.50	     6.245
  49.540         38.33	     6.782
  49.560         44.17	     7.280
  49.580         47.50	     7.550
  49.600         55.83	     8.185
  49.620         40.00	     6.928
  49.640         52.50	     7.937
  49.660         45.00	     7.348
  49.680         65.00	     8.832
  49.700         46.67	     7.483
  49.720         44.17	     7.280
  49.740         45.00	     7.348
  49.760         60.00	     8.485
  49.780         65.83	     8.888
  49.800         61.67	     8.602
  49.820         62.50	     8.660
  49.840         60.83	     8.544
  49.860         64.17	     8.775
  49.880         70.00	     9.165
  49.900         82.50	     9.950
  49.920         85.83	    10.149
  49.940         66.67	     8.944
  49.960         79.17	     9.747
  49.980         96.67	    10.770
  50.000         95.83	    10.724
  50.020         88.33	    10.296
  50.040         84.17	    10.050
  50.060         90.00	    10.392
  50.080         90.00	    10.392
  50.100        120.00	    12.000
  50.120        165.00	    14.071
  50.140        175.83	    14.526
  50.160        230.00	    16.613
  50.180        283.33	    18.439
  50.200        247.50	    17.234
  50.220        174.17	    14.457
  50.240        135.83	    12.767
  50.260        100.83	    11.000
  50.280        123.33	    12.166
  50.300        153.33	    13.565
  50.320        171.67	    14.353
  50.340        146.67	    13.266
  50.360        103.33	    11.136
  50.380         88.33	    10.296
  50.400         70.83	     9.220
  50.420         69.17	     9.110
  50.440         60.83	     8.544
  50.460         60.00	     8.485
  50.480         42.50	     7.141
  50.500         64.17	     8.775
  50.520         45.00	     7.348
  50.540         41.67	     7.071
  50.560         50.83	     7.810
  50.580         63.33	     8.718
  50.600         60.00	     8.485
  50.620         75.00	     9.487
  50.640         64.17	     8.775
  50.660         69.17	     9.110
  50.680         65.00	     8.832
  50.700         63.33	     8.718
  50.720         68.33	     9.055
  50.740         58.33	     8.367
  50.760         86.67	    10.198
  50.780         89.17	    10.344
  50.800         82.50	     9.950
  50.820         81.67	     9.899
  50.840         67.50	     9.000
  50.860         56.67	     8.246
  50.880         60.83	     8.544
  50.900         48.33	     7.616
  50.920         51.67	     7.874
  50.940         49.17	     7.681
  50.960         41.67	     7.071
  50.980         46.67	     7.483
  51.000         41.67	     7.071
  51.020         35.00	     6.481
  51.040         36.67	     6.633
  51.060         40.00	     6.928
  51.080         39.17	     6.856
  51.100         38.33	     6.782
  51.120         48.33	     7.616
  51.140         53.33	     8.000
  51.160         85.83	    10.149
  51.180         80.83	     9.849
  51.200         82.50	     9.950
  51.220         72.50	     9.327
  51.240         63.33	     8.718
  51.260         51.67	     7.874
  51.280         55.83	     8.185
  51.300         80.83	     9.849
  51.320         60.00	     8.485
  51.340         77.50	     9.644
  51.360         59.17	     8.426
  51.380         50.00	     7.746
  51.400         57.50	     8.307
  51.420         60.83	     8.544
  51.440         49.17	     7.681
  51.460         40.00	     6.928
  51.480         40.00	     6.928
  51.500         42.50	     7.141
  51.520         40.00	     6.928
  51.540         45.83	     7.416
  51.560         35.00	     6.481
  51.580         30.83	     6.083
  51.600         40.00	     6.928
  51.620         35.00	     6.481
  51.640         38.33	     6.782
  51.660         31.67	     6.164
  51.680         27.50	     5.745
  51.700         32.50	     6.245
  51.720         32.50	     6.245
  51.740         35.00	     6.481
  51.760         31.67	     6.164
  51.780         36.67	     6.633
  51.800         45.00	     7.348
  51.820         31.67	     6.164
  51.840         34.17	     6.403
  51.860         34.17	     6.403
  51.880         30.00	     6.000
  51.900         38.33	     6.782
  51.920         35.00	     6.481
  51.940         26.67	     5.657
  51.960         32.50	     6.245
  51.980         43.33	     7.211
  52.000         35.00	     6.481
  52.020         45.83	     7.416
  52.040         32.50	     6.245
  52.060         35.83	     6.557
  52.080         35.00	     6.481
  52.100         39.17	     6.856
  52.120         37.50	     6.708
  52.140         38.33	     6.782
  52.160         55.00	     8.124
  52.180         57.50	     8.307
  52.200         50.83	     7.810
  52.220         46.67	     7.483
  52.240         58.33	     8.367
  52.260         50.00	     7.746
  52.280         45.83	     7.416
  52.300         47.50	     7.550
  52.320         47.50	     7.550
  52.340         60.00	     8.485
  52.360         56.67	     8.246
  52.380         49.17	     7.681
  52.400         48.33	     7.616
  52.420         53.33	     8.000
  52.440         66.67	     8.944
  52.460         52.50	     7.937
  52.480         58.33	     8.367
  52.500         45.83	     7.416
  52.520         40.00	     6.928
  52.540         50.83	     7.810
  52.560         59.17	     8.426
  52.580         64.17	     8.775
  52.600         69.17	     9.110
  52.620         52.50	     7.937
  52.640         65.00	     8.832
  52.660         52.50	     7.937
  52.680         53.33	     8.000
  52.700         60.00	     8.485
  52.720         52.50	     7.937
  52.740         44.17	     7.280
  52.760         55.00	     8.124
  52.780         48.33	     7.616
  52.800         57.50	     8.307
  52.820         46.67	     7.483
  52.840         36.67	     6.633
  52.860         47.50	     7.550
  52.880         49.17	     7.681
  52.900         41.67	     7.071
  52.920         45.83	     7.416
  52.940         40.83	     7.000
  52.960         53.33	     8.000
  52.980         46.67	     7.483
  53.000         45.83	     7.416
  53.020         48.33	     7.616
  53.040         46.67	     7.483
  53.060         54.17	     8.062
  53.080         48.33	     7.616
  53.100         55.83	     8.185
  53.120         49.17	     7.681
  53.140         39.17	     6.856
  53.160         50.83	     7.810
  53.180         58.33	     8.367
  53.200         52.50	     7.937
  53.220         57.50	     8.307
  53.240         69.17	     9.110
  53.260         60.83	     8.544
  53.280         54.17	     8.062
  53.300         60.83	     8.544
  53.320         60.83	     8.544
  53.340         58.33	     8.367
  53.360         42.50	     7.141
  53.380         47.50	     7.550
  53.400         58.33	     8.367
  53.420         54.17	     8.062
  53.440         45.00	     7.348
  53.460         55.00	     8.124
  53.480         46.67	     7.483
  53.500         44.17	     7.280
  53.520         39.17	     6.856
  53.540         57.50	     8.307
  53.560         60.00	     8.485
  53.580         55.00	     8.124
  53.600         37.50	     6.708
  53.620         31.67	     6.164
  53.640         48.33	     7.616
  53.660         34.17	     6.403
  53.680         49.17	     7.681
  53.700         63.33	     8.718
  53.720         47.50	     7.550
  53.740         46.67	     7.483
  53.760         41.67	     7.071
  53.780         45.83	     7.416
  53.800         36.67	     6.633
  53.820         45.83	     7.416
  53.840         40.83	     7.000
  53.860         30.00	     6.000
  53.880         41.67	     7.071
  53.900         46.67	     7.483
  53.920         42.50	     7.141
  53.940         43.33	     7.211
  53.960         35.00	     6.481
  53.980         50.83	     7.810
  54.000         39.17	     6.856
  54.020         32.50	     6.245
  54.040         38.33	     6.782
  54.060         53.33	     8.000
  54.080         37.50	     6.708
  54.100         50.83	     7.810
  54.120         44.17	     7.280
  54.140         35.00	     6.481
  54.160         44.17	     7.280
  54.180         42.50	     7.141
  54.200         42.50	     7.141
  54.220         36.67	     6.633
  54.240         41.67	     7.071
  54.260         45.83	     7.416
  54.280         51.67	     7.874
  54.300         39.17	     6.856
  54.320         58.33	     8.367
  54.340         50.83	     7.810
  54.360         59.17	     8.426
  54.380         61.67	     8.602
  54.400         55.00	     8.124
  54.420         72.50	     9.327
  54.440         66.67	     8.944
  54.460         43.33	     7.211
  54.480         43.33	     7.211
  54.500         60.00	     8.485
  54.520         49.17	     7.681
  54.540         73.33	     9.381
  54.560         65.00	     8.832
  54.580         68.33	     9.055
  54.600         54.17	     8.062
  54.620         50.00	     7.746
  54.640         67.50	     9.000
  54.660         72.50	     9.327
  54.680         55.83	     8.185
  54.700         62.50	     8.660
  54.720         62.50	     8.660
  54.740         71.67	     9.274
  54.760         53.33	     8.000
  54.780         50.83	     7.810
  54.800         48.33	     7.616
  54.820         55.00	     8.124
  54.840         59.17	     8.426
  54.860         77.50	     9.644
  54.880         98.33	    10.863
  54.900         89.17	    10.344
  54.920         98.33	    10.863
  54.940        110.00	    11.489
  54.960         78.33	     9.695
  54.980         77.50	     9.644
  55.000         68.33	     9.055
  55.020         75.00	     9.487
  55.040         78.33	     9.695
  55.060         77.50	     9.644
  55.080         76.67	     9.592
  55.100         73.33	     9.381
  55.120         59.17	     8.426
  55.140         62.50	     8.660
  55.160         61.67	     8.602
  55.180         60.00	     8.485
  55.200         66.67	     8.944
  55.220         59.17	     8.426
  55.240         66.67	     8.944
  55.260         67.50	     9.000
  55.280         67.50	     9.000
  55.300         62.50	     8.660
  55.320         76.67	     9.592
  55.340         76.67	     9.592
  55.360         89.17	    10.344
  55.380         80.00	     9.798
  55.400         65.83	     8.888
  55.420         73.33	     9.381
  55.440         75.83	     9.539
  55.460         67.50	     9.000
  55.480         60.00	     8.485
  55.500         63.33	     8.718
  55.520         50.83	     7.810
  55.540         66.67	     8.944
  55.560         53.33	     8.000
  55.580         66.67	     8.944
  55.600         59.17	     8.426
  55.620         69.17	     9.110
  55.640         70.00	     9.165
  55.660         72.50	     9.327
  55.680         67.50	     9.000
  55.700         74.17	     9.434
  55.720         84.17	    10.050
  55.740         86.67	    10.198
  55.760         77.50	     9.644
  55.780         82.50	     9.950
  55.800         80.83	     9.849
  55.820        104.17	    11.180
  55.840         94.17	    10.630
  55.860        106.67	    11.314
  55.880        110.83	    11.533
  55.900        126.67	    12.329
  55.920        109.17	    11.446
  55.940        102.50	    11.091
  55.960        105.00	    11.225
  55.980         86.67	    10.198
  56.000         84.17	    10.050
  56.020         75.83	     9.539
  56.040         80.83	     9.849
  56.060         75.83	     9.539
  56.080         76.67	     9.592
  56.100         59.17	     8.426
  56.120         62.50	     8.660
  56.140         59.17	     8.426
  56.160         56.67	     8.246
  56.180         69.17	     9.110
  56.200         45.00	     7.348
  56.220         53.33	     8.000
  56.240         55.00	     8.124
  56.260         55.00	     8.124
  56.280         42.50	     7.141
  56.300         44.17	     7.280
  56.320         48.33	     7.616
  56.340         51.67	     7.874
  56.360         31.67	     6.164
  56.380         45.83	     7.416
  56.400         47.50	     7.550
  56.420         44.17	     7.280
  56.440         43.33	     7.211
  56.460         40.83	     7.000
  56.480         45.83	     7.416
  56.500         40.00	     6.928
  56.520         44.17	     7.280
  56.540         39.17	     6.856
  56.560         43.33	     7.211
  56.580         40.83	     7.000
  56.600         33.33	     6.325
  56.620         49.17	     7.681
  56.640         45.83	     7.416
  56.660         43.33	     7.211
  56.680         46.67	     7.483
  56.700         43.33	     7.211
  56.720         41.67	     7.071
  56.740         53.33	     8.000
  56.760         46.67	     7.483
  56.780         60.00	     8.485
  56.800         45.00	     7.348
  56.820         47.50	     7.550
  56.840         46.67	     7.483
  56.860         40.83	     7.000
  56.880         32.50	     6.245
  56.900         43.33	     7.211
  56.920         41.67	     7.071
  56.940         46.67	     7.483
  56.960         40.83	     7.000
  56.980         50.00	     7.746
  57.000         41.67	     7.071
  57.020         51.67	     7.874
  57.040         48.33	     7.616
  57.060         50.00	     7.746
  57.080         44.17	     7.280
  57.100         43.33	     7.211
  57.120         46.67	     7.483
  57.140         29.17	     5.916
  57.160         35.00	     6.481
  57.180         46.67	     7.483
  57.200         51.67	     7.874
  57.220         36.67	     6.633
  57.240         41.67	     7.071
  57.260         36.67	     6.633
  57.280         45.83	     7.416
  57.300         35.83	     6.557
  57.320         46.67	     7.483
  57.340         43.33	     7.211
  57.360         35.00	     6.481
  57.380         31.67	     6.164
  57.400         35.83	     6.557
  57.420         39.17	     6.856
  57.440         43.33	     7.211
  57.460         36.67	     6.633
  57.480         30.83	     6.083
  57.500         35.83	     6.557
  57.520         35.00	     6.481
  57.540         41.67	     7.071
  57.560         45.00	     7.348
  57.580         40.83	     7.000
  57.600         40.83	     7.000
  57.620         44.17	     7.280
  57.640         43.33	     7.211
  57.660         46.67	     7.483
  57.680         32.50	     6.245
  57.700         38.33	     6.782
  57.720         42.50	     7.141
  57.740         35.83	     6.557
  57.760         30.00	     6.000
  57.780         33.33	     6.325
  57.800         41.67	     7.071
  57.820         46.67	     7.483
  57.840         36.67	     6.633
  57.860         54.17	     8.062
  57.880         51.67	     7.874
  57.900         33.33	     6.325
  57.920         35.83	     6.557
  57.940         29.17	     5.916
  57.960         40.00	     6.928
  57.980         40.83	     7.000
  58.000         37.50	     6.708
  58.020         41.67	     7.071
  58.040         45.83	     7.416
  58.060         35.83	     6.557
  58.080         50.00	     7.746
  58.100         39.17	     6.856
  58.120         50.83	     7.810
  58.140         50.00	     7.746
  58.160         51.67	     7.874
  58.180         46.67	     7.483
  58.200         41.67	     7.071
  58.220         41.67	     7.071
  58.240         40.00	     6.928
  58.260         44.17	     7.280
  58.280         41.67	     7.071
  58.300         50.83	     7.810
  58.320         44.17	     7.280
  58.340         46.67	     7.483
  58.360         47.50	     7.550
  58.380         56.67	     8.246
  58.400         46.67	     7.483
  58.420         57.50	     8.307
  58.440         45.83	     7.416
  58.460         40.83	     7.000
  58.480         45.83	     7.416
  58.500         44.17	     7.280
  58.520         39.17	     6.856
  58.540         37.50	     6.708
  58.560         50.00	     7.746
  58.580         51.67	     7.874
  58.600         53.33	     8.000
  58.620         62.50	     8.660
  58.640         55.83	     8.185
  58.660         54.17	     8.062
  58.680         59.17	     8.426
  58.700         66.67	     8.944
  58.720         43.33	     7.211
  58.740         76.67	     9.592
  58.760         57.50	     8.307
  58.780         67.50	     9.000
  58.800         53.33	     8.000
  58.820         65.00	     8.832
  58.840         65.00	     8.832
  58.860         60.83	     8.544
  58.880         66.67	     8.944
  58.900         64.17	     8.775
  58.920         56.67	     8.246
  58.940         54.17	     8.062
  58.960         70.83	     9.220
  58.980         57.50	     8.307
  59.000         53.33	     8.000
  59.020         61.67	     8.602
  59.040         63.33	     8.718
  59.060         72.50	     9.327
  59.080         65.83	     8.888
  59.100         58.33	     8.367
  59.120         79.17	     9.747
  59.140         69.17	     9.110
  59.160         68.33	     9.055
  59.180         68.33	     9.055
  59.200         70.83	     9.220
  59.220         80.00	     9.798
  59.240         74.17	     9.434
  59.260         59.17	     8.426
  59.280         63.33	     8.718
  59.300         61.67	     8.602
  59.320         63.33	     8.718
  59.340         60.00	     8.485
  59.360         64.17	     8.775
  59.380         55.00	     8.124
  59.400         58.33	     8.367
  59.420         54.17	     8.062
  59.440         51.67	     7.874
  59.460         63.33	     8.718
  59.480         60.83	     8.544
  59.500         60.83	     8.544
  59.520         61.67	     8.602
  59.540         45.83	     7.416
  59.560         44.17	     7.280
  59.580         49.17	     7.681
  59.600         55.00	     8.124
  59.620         50.00	     7.746
  59.640         47.50	     7.550
  59.660         56.67	     8.246
  59.680         50.00	     7.746
  59.700         59.17	     8.426
  59.720         56.67	     8.246
  59.740         57.50	     8.307
  59.760         50.00	     7.746
  59.780         53.33	     8.000
  59.800         49.17	     7.681
  59.820         56.67	     8.246
  59.840         61.67	     8.602
  59.860         75.00	     9.487
  59.880         65.83	     8.888
  59.900         86.67	    10.198
  59.920         95.00	    10.677
  59.940        129.17	    12.450
  59.960        150.00	    13.416
  59.980        190.00	    15.100
  60.000        197.50	    15.395
  60.020        195.83	    15.330
  60.040        160.83	    13.892
  60.060        137.50	    12.845
  60.080        127.50	    12.369
  60.100        109.17	    11.446
  60.120        114.17	    11.705
  60.140        124.17	    12.207
  60.160        141.67	    13.038
  60.180        130.83	    12.530
  60.200        114.17	    11.705
  60.220         82.50	     9.950
  60.240         88.33	    10.296
  60.260         66.67	     8.944
  60.280         76.67	     9.592
  60.300         60.83	     8.544
  60.320         55.00	     8.124
  60.340         65.00	     8.832
  60.360         65.00	     8.832
  60.380         57.50	     8.307
  60.400         64.17	     8.775
  60.420         61.67	     8.602
  60.440         61.67	     8.602
  60.460         62.50	     8.660
  60.480         51.67	     7.874
  60.500         69.17	     9.110
  60.520         59.17	     8.426
  60.540         63.33	     8.718
  60.560         81.67	     9.899
  60.580         50.00	     7.746
  60.600         70.00	     9.165
  60.620         62.50	     8.660
  60.640         58.33	     8.367
  60.660         62.50	     8.660
  60.680         68.33	     9.055
  60.700         70.00	     9.165
  60.720         74.17	     9.434
  60.740         58.33	     8.367
  60.760         62.50	     8.660
  60.780         65.83	     8.888
  60.800         78.33	     9.695
  60.820         72.50	     9.327
  60.840         75.00	     9.487
  60.860         70.83	     9.220
  60.880         93.33	    10.583
  60.900         98.33	    10.863
  60.920         77.50	     9.644
  60.940         82.50	     9.950
  60.960         73.33	     9.381
  60.980         92.50	    10.536
  61.000         83.33	    10.000
  61.020         67.50	     9.000
  61.040         73.33	     9.381
  61.060         60.83	     8.544
  61.080         75.00	     9.487
  61.100         73.33	     9.381
  61.120         60.00	     8.485
  61.140         72.50	     9.327
  61.160         79.17	     9.747
  61.180         61.67	     8.602
  61.200         66.67	     8.944
  61.220         56.67	     8.246
  61.240         53.33	     8.000
  61.260         60.00	     8.485
  61.280         50.83	     7.810
  61.300         65.00	     8.832
  61.320         65.00	     8.832
  61.340         59.17	     8.426
  61.360         57.50	     8.307
  61.380         60.83	     8.544
  61.400         65.83	     8.888
  61.420         72.50	     9.327
  61.440         79.17	     9.747
  61.460         72.50	     9.327
  61.480         81.67	     9.899
  61.500         91.67	    10.488
  61.520         89.17	    10.344
  61.540         92.50	    10.536
  61.560         88.33	    10.296
  61.580         86.67	    10.198
  61.600         86.67	    10.198
  61.620         80.00	     9.798
  61.640         71.67	     9.274
  61.660         73.33	     9.381
  61.680         80.83	     9.849
  61.700         74.17	     9.434
  61.720         71.67	     9.274
  61.740         74.17	     9.434
  61.760         73.33	     9.381
  61.780         80.00	     9.798
  61.800         87.50	    10.247
  61.820         65.83	     8.888
  61.840         65.83	     8.888
  61.860         78.33	     9.695
  61.880         50.83	     7.810
  61.900         65.00	     8.832
  61.920         69.17	     9.110
  61.940         66.67	     8.944
  61.960         65.00	     8.832
  61.980         64.17	     8.775
  62.000         65.00	     8.832
  62.020         60.83	     8.544
  62.040         62.50	     8.660
  62.060         65.00	     8.832
  62.080         60.83	     8.544
  62.100         59.17	     8.426
  62.120         70.00	     9.165
  62.140         54.17	     8.062
  62.160         59.17	     8.426
  62.180         44.17	     7.280
  62.200         53.33	     8.000
  62.220         57.50	     8.307
  62.240         51.67	     7.874
  62.260         48.33	     7.616
  62.280         32.50	     6.245
  62.300         50.83	     7.810
  62.320         39.17	     6.856
  62.340         43.33	     7.211
  62.360         46.67	     7.483
  62.380         36.67	     6.633
  62.400         34.17	     6.403
  62.420         40.83	     7.000
  62.440         43.33	     7.211
  62.460         41.67	     7.071
  62.480         42.50	     7.141
  62.500         35.00	     6.481
  62.520         39.17	     6.856
  62.540         30.00	     6.000
  62.560         45.83	     7.416
  62.580         42.50	     7.141
  62.600         41.67	     7.071
  62.620         49.17	     7.681
  62.640         36.67	     6.633
  62.660         50.83	     7.810
  62.680         38.33	     6.782
  62.700         45.00	     7.348
  62.720         50.83	     7.810
  62.740         40.83	     7.000
  62.760         60.00	     8.485
  62.780         57.50	     8.307
  62.800         46.67	     7.483
  62.820         57.50	     8.307
  62.840         65.83	     8.888
  62.860         40.00	     6.928
  62.880         56.67	     8.246
  62.900         44.17	     7.280
  62.920         51.67	     7.874
  62.940         44.17	     7.280
  62.960         59.17	     8.426
  62.980         45.83	     7.416
  63.000         49.17	     7.681
  63.020         40.83	     7.000
  63.040         43.33	     7.211
  63.060         43.33	     7.211
  63.080         36.67	     6.633
  63.100         38.33	     6.782
  63.120         35.00	     6.481
  63.140         42.50	     7.141
  63.160         28.33	     5.831
  63.180         36.67	     6.633
  63.200         51.67	     7.874
  63.220         47.50	     7.550
  63.240         46.67	     7.483
  63.260         32.50	     6.245
  63.280         42.50	     7.141
  63.300         47.50	     7.550
  63.320         40.83	     7.000
  63.340         40.83	     7.000
  63.360         40.83	     7.000
  63.380         49.17	     7.681
  63.400         45.83	     7.416
  63.420         43.33	     7.211
  63.440         35.83	     6.557
  63.460         52.50	     7.937
  63.480         52.50	     7.937
  63.500         69.17	     9.110
  63.520         61.67	     8.602
  63.540         47.50	     7.550
  63.560         48.33	     7.616
  63.580         69.17	     9.110
  63.600         50.00	     7.746
  63.620         43.33	     7.211
  63.640         48.33	     7.616
  63.660         36.67	     6.633
  63.680         58.33	     8.367
  63.700         46.67	     7.483
  63.720         45.83	     7.416
  63.740         55.83	     8.185
  63.760         44.17	     7.280
  63.780         75.83	     9.539
  63.800         62.50	     8.660
  63.820         60.00	     8.485
  63.840         51.67	     7.874
  63.860         61.67	     8.602
  63.880         54.17	     8.062
  63.900         60.83	     8.544
  63.920         54.17	     8.062
  63.940         65.00	     8.832
  63.960         41.67	     7.071
  63.980         45.83	     7.416
  64.000         66.67	     8.944
  64.020         80.00	     9.798
  64.040         98.33	    10.863
  64.060         81.67	     9.899
  64.080         72.50	     9.327
  64.100         79.17	     9.747
  64.120         72.50	     9.327
  64.140         72.50	     9.327
  64.160         56.67	     8.246
  64.180         77.50	     9.644
  64.200         69.17	     9.110
  64.220         70.83	     9.220
  64.240         65.83	     8.888
  64.260         63.33	     8.718
  64.280         70.83	     9.220
  64.300         70.00	     9.165
  64.320         62.50	     8.660
  64.340         56.67	     8.246
  64.360         53.33	     8.000
  64.380         49.17	     7.681
  64.400         55.83	     8.185
  64.420         36.67	     6.633
  64.440         53.33	     8.000
  64.460         42.50	     7.141
  64.480         45.83	     7.416
  64.500         47.50	     7.550
  64.520         42.50	     7.141
  64.540         54.17	     8.062
  64.560         48.33	     7.616
  64.580         49.17	     7.681
  64.600         38.33	     6.782
  64.620         57.50	     8.307
  64.640         55.00	     8.124
  64.660         55.83	     8.185
  64.680         50.83	     7.810
  64.700         54.17	     8.062
  64.720         59.17	     8.426
  64.740         43.33	     7.211
  64.760         45.83	     7.416
  64.780         52.50	     7.937
  64.800         50.00	     7.746
  64.820         65.00	     8.832
  64.840         61.67	     8.602
  64.860         45.83	     7.416
  64.880         55.83	     8.185
  64.900         62.50	     8.660
  64.920         50.83	     7.810
  64.940         55.83	     8.185
  64.960         50.00	     7.746
  64.980         48.33	     7.616
  65.000         52.50	     7.937
