
Filename:
	C:\Program Files\Thermo Electron\WinXRD\Datafiles\F_HERMAN\GEO\GG_3_SFT.raw

File Created:
	October 12, 2020 - 02:40 PM

Specimen Id:
	GG3 SFT

Specimen Name:
	

Specimen Description:
	

Comment:
Scan Type: 2Theta Scan
Start Angle: 3 deg.
Stop Angle: 65 deg.
Num Points: 3101
Step Size: 0.02 deg.
Scan Rate: 1.000000
Scan Mode: Continuous
Wavelength: 1.540562
\Kalpha1: 1.540562	\Kalpha2: 1.544390	\Kbeta: 1.392218

Optics:
		Detector:
			 Type: Fixed Slits
		Tube: 
			 Type: Fixed Slits


Datas:
 Pos [deg]       Rate [CPS]      ESD [-]

Range 1 ---> Iteration 1
   3.000        416.67	    22.361
   3.020        394.17	    21.749
   3.040        400.00	    21.909
   3.060        395.00	    21.772
   3.080        378.33	    21.307
   3.100        385.83	    21.517
   3.120        383.33	    21.448
   3.140        386.67	    21.541
   3.160        363.33	    20.881
   3.180        362.50	    20.857
   3.200        363.33	    20.881
   3.220        353.33	    20.591
   3.240        377.50	    21.284
   3.260        377.50	    21.284
   3.280        365.00	    20.928
   3.300        350.00	    20.494
   3.320        373.33	    21.166
   3.340        321.67	    19.647
   3.360        349.17	    20.469
   3.380        380.00	    21.354
   3.400        315.83	    19.468
   3.420        355.83	    20.664
   3.440        315.83	    19.468
   3.460        320.00	    19.596
   3.480        331.67	    19.950
   3.500        320.00	    19.596
   3.520        329.17	    19.875
   3.540        320.83	    19.621
   3.560        364.17	    20.905
   3.580        321.67	    19.647
   3.600        353.33	    20.591
   3.620        315.83	    19.468
   3.640        315.83	    19.468
   3.660        307.50	    19.209
   3.680        328.33	    19.849
   3.700        316.67	    19.494
   3.720        353.33	    20.591
   3.740        285.00	    18.493
   3.760        298.33	    18.921
   3.780        307.50	    19.209
   3.800        285.83	    18.520
   3.820        300.83	    19.000
   3.840        316.67	    19.494
   3.860        274.17	    18.138
   3.880        291.67	    18.708
   3.900        301.67	    19.026
   3.920        302.50	    19.053
   3.940        260.83	    17.692
   3.960        276.67	    18.221
   3.980        278.33	    18.276
   4.000        290.83	    18.682
   4.020        295.83	    18.841
   4.040        257.50	    17.578
   4.060        271.67	    18.055
   4.080        280.83	    18.358
   4.100        265.83	    17.861
   4.120        280.00	    18.330
   4.140        284.17	    18.466
   4.160        270.00	    18.000
   4.180        271.67	    18.055
   4.200        257.50	    17.578
   4.220        254.17	    17.464
   4.240        268.33	    17.944
   4.260        264.17	    17.804
   4.280        263.33	    17.776
   4.300        245.83	    17.176
   4.320        255.00	    17.493
   4.340        258.33	    17.607
   4.360        261.67	    17.720
   4.380        236.67	    16.852
   4.400        245.00	    17.146
   4.420        237.50	    16.882
   4.440        251.67	    17.378
   4.460        234.17	    16.763
   4.480        260.83	    17.692
   4.500        235.00	    16.793
   4.520        234.17	    16.763
   4.540        218.33	    16.186
   4.560        259.17	    17.635
   4.580        227.50	    16.523
   4.600        220.00	    16.248
   4.620        244.17	    17.117
   4.640        226.67	    16.492
   4.660        245.00	    17.146
   4.680        220.00	    16.248
   4.700        209.17	    15.843
   4.720        225.83	    16.462
   4.740        215.83	    16.093
   4.760        215.00	    16.062
   4.780        235.00	    16.793
   4.800        236.67	    16.852
   4.820        199.17	    15.460
   4.840        222.50	    16.340
   4.860        198.33	    15.427
   4.880        223.33	    16.371
   4.900        242.50	    17.059
   4.920        217.50	    16.155
   4.940        215.00	    16.062
   4.960        221.67	    16.310
   4.980        220.00	    16.248
   5.000        220.83	    16.279
   5.020        211.67	    15.937
   5.040        240.00	    16.971
   5.060        209.17	    15.843
   5.080        215.00	    16.062
   5.100        245.83	    17.176
   5.120        206.67	    15.748
   5.140        226.67	    16.492
   5.160        208.33	    15.811
   5.180        213.33	    16.000
   5.200        196.67	    15.362
   5.220        190.00	    15.100
   5.240        206.67	    15.748
   5.260        191.67	    15.166
   5.280        190.00	    15.100
   5.300        195.00	    15.297
   5.320        202.50	    15.588
   5.340        207.50	    15.780
   5.360        210.83	    15.906
   5.380        191.67	    15.166
   5.400        196.67	    15.362
   5.420        206.67	    15.748
   5.440        207.50	    15.780
   5.460        221.67	    16.310
   5.480        202.50	    15.588
   5.500        187.50	    15.000
   5.520        191.67	    15.166
   5.540        217.50	    16.155
   5.560        198.33	    15.427
   5.580        193.33	    15.232
   5.600        193.33	    15.232
   5.620        177.50	    14.595
   5.640        177.50	    14.595
   5.660        215.83	    16.093
   5.680        186.67	    14.967
   5.700        176.67	    14.560
   5.720        200.00	    15.492
   5.740        170.83	    14.318
   5.760        206.67	    15.748
   5.780        228.33	    16.553
   5.800        182.50	    14.799
   5.820        168.33	    14.213
   5.840        167.50	    14.177
   5.860        175.00	    14.491
   5.880        175.00	    14.491
   5.900        193.33	    15.232
   5.920        205.00	    15.684
   5.940        210.00	    15.875
   5.960        208.33	    15.811
   5.980        195.00	    15.297
   6.000        210.83	    15.906
   6.020        219.17	    16.217
   6.040        190.83	    15.133
   6.060        191.67	    15.166
   6.080        229.17	    16.583
   6.100        227.50	    16.523
   6.120        221.67	    16.310
   6.140        217.50	    16.155
   6.160        265.83	    17.861
   6.180        216.67	    16.125
   6.200        261.67	    17.720
   6.220        256.67	    17.550
   6.240        280.00	    18.330
   6.260        294.17	    18.788
   6.280        290.00	    18.655
   6.300        280.00	    18.330
   6.320        262.50	    17.748
   6.340        237.50	    16.882
   6.360        199.17	    15.460
   6.380        201.67	    15.556
   6.400        219.17	    16.217
   6.420        172.50	    14.387
   6.440        165.83	    14.107
   6.460        191.67	    15.166
   6.480        165.83	    14.107
   6.500        185.00	    14.900
   6.520        175.00	    14.491
   6.540        169.17	    14.248
   6.560        167.50	    14.177
   6.580        162.50	    13.964
   6.600        169.17	    14.248
   6.620        180.83	    14.731
   6.640        183.33	    14.832
   6.660        178.33	    14.629
   6.680        175.00	    14.491
   6.700        175.00	    14.491
   6.720        170.00	    14.283
   6.740        160.83	    13.892
   6.760        154.17	    13.601
   6.780        166.67	    14.142
   6.800        176.67	    14.560
   6.820        162.50	    13.964
   6.840        170.83	    14.318
   6.860        141.67	    13.038
   6.880        151.67	    13.491
   6.900        138.33	    12.884
   6.920        162.50	    13.964
   6.940        145.83	    13.229
   6.960        158.33	    13.784
   6.980        157.50	    13.748
   7.000        136.67	    12.806
   7.020        168.33	    14.213
   7.040        165.83	    14.107
   7.060        157.50	    13.748
   7.080        160.83	    13.892
   7.100        135.83	    12.767
   7.120        139.17	    12.923
   7.140        147.50	    13.304
   7.160        163.33	    14.000
   7.180        139.17	    12.923
   7.200        148.33	    13.342
   7.220        157.50	    13.748
   7.240        134.17	    12.689
   7.260        154.17	    13.601
   7.280        140.83	    13.000
   7.300        157.50	    13.748
   7.320        140.00	    12.961
   7.340        141.67	    13.038
   7.360        144.17	    13.153
   7.380        142.50	    13.077
   7.400        148.33	    13.342
   7.420        150.83	    13.454
   7.440        147.50	    13.304
   7.460        154.17	    13.601
   7.480        130.83	    12.530
   7.500        149.17	    13.379
   7.520        118.33	    11.916
   7.540        135.83	    12.767
   7.560        141.67	    13.038
   7.580        149.17	    13.379
   7.600        128.33	    12.410
   7.620        111.67	    11.576
   7.640        127.50	    12.369
   7.660        150.00	    13.416
   7.680        146.67	    13.266
   7.700        130.83	    12.530
   7.720        140.00	    12.961
   7.740        137.50	    12.845
   7.760        137.50	    12.845
   7.780        130.00	    12.490
   7.800        134.17	    12.689
   7.820        138.33	    12.884
   7.840        115.00	    11.747
   7.860        159.17	    13.820
   7.880        111.67	    11.576
   7.900        135.83	    12.767
   7.920        120.00	    12.000
   7.940        126.67	    12.329
   7.960        142.50	    13.077
   7.980        130.00	    12.490
   8.000        132.50	    12.610
   8.020        131.67	    12.570
   8.040        143.33	    13.115
   8.060        116.67	    11.832
   8.080        111.67	    11.576
   8.100        127.50	    12.369
   8.120        122.50	    12.124
   8.140        125.00	    12.247
   8.160        132.50	    12.610
   8.180        140.83	    13.000
   8.200        128.33	    12.410
   8.220        141.67	    13.038
   8.240        110.00	    11.489
   8.260        125.83	    12.288
   8.280        149.17	    13.379
   8.300        145.00	    13.191
   8.320        150.00	    13.416
   8.340        131.67	    12.570
   8.360        156.67	    13.711
   8.380        148.33	    13.342
   8.400        123.33	    12.166
   8.420        151.67	    13.491
   8.440        125.00	    12.247
   8.460        124.17	    12.207
   8.480        134.17	    12.689
   8.500        169.17	    14.248
   8.520        159.17	    13.820
   8.540        142.50	    13.077
   8.560        150.00	    13.416
   8.580        157.50	    13.748
   8.600        170.00	    14.283
   8.620        180.00	    14.697
   8.640        160.83	    13.892
   8.660        194.17	    15.264
   8.680        170.83	    14.318
   8.700        181.67	    14.765
   8.720        218.33	    16.186
   8.740        204.17	    15.652
   8.760        227.50	    16.523
   8.780        278.33	    18.276
   8.800        294.17	    18.788
   8.820        346.67	    20.396
   8.840        365.00	    20.928
   8.860        410.00	    22.181
   8.880        490.00	    24.249
   8.900        596.67	    26.758
   8.920        650.83	    27.946
   8.940        609.17	    27.037
   8.960        486.67	    24.166
   8.980        343.33	    20.298
   9.000        244.17	    17.117
   9.020        183.33	    14.832
   9.040        185.00	    14.900
   9.060        141.67	    13.038
   9.080        143.33	    13.115
   9.100        141.67	    13.038
   9.120        145.00	    13.191
   9.140        130.83	    12.530
   9.160        120.83	    12.042
   9.180        130.83	    12.530
   9.200        136.67	    12.806
   9.220        132.50	    12.610
   9.240        113.33	    11.662
   9.260        129.17	    12.450
   9.280        122.50	    12.124
   9.300        122.50	    12.124
   9.320        130.83	    12.530
   9.340        104.17	    11.180
   9.360        106.67	    11.314
   9.380        119.17	    11.958
   9.400        122.50	    12.124
   9.420        107.50	    11.358
   9.440         96.67	    10.770
   9.460        118.33	    11.916
   9.480        131.67	    12.570
   9.500        139.17	    12.923
   9.520        108.33	    11.402
   9.540        112.50	    11.619
   9.560        100.83	    11.000
   9.580        107.50	    11.358
   9.600         97.50	    10.817
   9.620        114.17	    11.705
   9.640        108.33	    11.402
   9.660         80.83	     9.849
   9.680         80.00	     9.798
   9.700        100.83	    11.000
   9.720        108.33	    11.402
   9.740         93.33	    10.583
   9.760        114.17	    11.705
   9.780        126.67	    12.329
   9.800         93.33	    10.583
   9.820        110.00	    11.489
   9.840        116.67	    11.832
   9.860        108.33	    11.402
   9.880        122.50	    12.124
   9.900        106.67	    11.314
   9.920        111.67	    11.576
   9.940         96.67	    10.770
   9.960         89.17	    10.344
   9.980         94.17	    10.630
  10.000         90.83	    10.440
  10.020         92.50	    10.536
  10.040         70.83	     9.220
  10.060         81.67	     9.899
  10.080        101.67	    11.045
  10.100         73.33	     9.381
  10.120         89.17	    10.344
  10.140        112.50	    11.619
  10.160         95.83	    10.724
  10.180         90.83	    10.440
  10.200        106.67	    11.314
  10.220         87.50	    10.247
  10.240         90.00	    10.392
  10.260         88.33	    10.296
  10.280         95.00	    10.677
  10.300         91.67	    10.488
  10.320         96.67	    10.770
  10.340        102.50	    11.091
  10.360         84.17	    10.050
  10.380        100.00	    10.954
  10.400         94.17	    10.630
  10.420         93.33	    10.583
  10.440        100.00	    10.954
  10.460        108.33	    11.402
  10.480        120.83	    12.042
  10.500        110.83	    11.533
  10.520        134.17	    12.689
  10.540        142.50	    13.077
  10.560        160.00	    13.856
  10.580        150.83	    13.454
  10.600        144.17	    13.153
  10.620        136.67	    12.806
  10.640         93.33	    10.583
  10.660         98.33	    10.863
  10.680        104.17	    11.180
  10.700         84.17	    10.050
  10.720         83.33	    10.000
  10.740         74.17	     9.434
  10.760         80.83	     9.849
  10.780         90.83	    10.440
  10.800         77.50	     9.644
  10.820         79.17	     9.747
  10.840         80.00	     9.798
  10.860         89.17	    10.344
  10.880         80.83	     9.849
  10.900         90.00	    10.392
  10.920         67.50	     9.000
  10.940         73.33	     9.381
  10.960         72.50	     9.327
  10.980         75.83	     9.539
  11.000         83.33	    10.000
  11.020         85.00	    10.100
  11.040        105.00	    11.225
  11.060         62.50	     8.660
  11.080         79.17	     9.747
  11.100         66.67	     8.944
  11.120         79.17	     9.747
  11.140         76.67	     9.592
  11.160         75.83	     9.539
  11.180         86.67	    10.198
  11.200         77.50	     9.644
  11.220         74.17	     9.434
  11.240         88.33	    10.296
  11.260         82.50	     9.950
  11.280         80.00	     9.798
  11.300         75.83	     9.539
  11.320         89.17	    10.344
  11.340         65.00	     8.832
  11.360         85.00	    10.100
  11.380         98.33	    10.863
  11.400         88.33	    10.296
  11.420         78.33	     9.695
  11.440         70.83	     9.220
  11.460         94.17	    10.630
  11.480         61.67	     8.602
  11.500         80.00	     9.798
  11.520         76.67	     9.592
  11.540         70.83	     9.220
  11.560         81.67	     9.899
  11.580         75.00	     9.487
  11.600         70.00	     9.165
  11.620         84.17	    10.050
  11.640         74.17	     9.434
  11.660         85.00	    10.100
  11.680         84.17	    10.050
  11.700         75.83	     9.539
  11.720         79.17	     9.747
  11.740         90.00	    10.392
  11.760         90.00	    10.392
  11.780         70.83	     9.220
  11.800         87.50	    10.247
  11.820         73.33	     9.381
  11.840         89.17	    10.344
  11.860         80.00	     9.798
  11.880         69.17	     9.110
  11.900         75.83	     9.539
  11.920         80.83	     9.849
  11.940         97.50	    10.817
  11.960         90.83	    10.440
  11.980         90.83	    10.440
  12.000         91.67	    10.488
  12.020         80.83	     9.849
  12.040         95.83	    10.724
  12.060        102.50	    11.091
  12.080         97.50	    10.817
  12.100        107.50	    11.358
  12.120        107.50	    11.358
  12.140        143.33	    13.115
  12.160        180.83	    14.731
  12.180        215.00	    16.062
  12.200        272.50	    18.083
  12.220        314.17	    19.416
  12.240        325.00	    19.748
  12.260        378.33	    21.307
  12.280        348.33	    20.445
  12.300        281.67	    18.385
  12.320        236.67	    16.852
  12.340        199.17	    15.460
  12.360        179.17	    14.663
  12.380        202.50	    15.588
  12.400        204.17	    15.652
  12.420        237.50	    16.882
  12.440        276.67	    18.221
  12.460        315.83	    19.468
  12.480        361.67	    20.833
  12.500        412.50	    22.249
  12.520        425.00	    22.583
  12.540        478.33	    23.958
  12.560        500.83	    24.515
  12.580        420.83	    22.472
  12.600        341.67	    20.248
  12.620        223.33	    16.371
  12.640        175.00	    14.491
  12.660        110.00	    11.489
  12.680         94.17	    10.630
  12.700         80.00	     9.798
  12.720         91.67	    10.488
  12.740         95.83	    10.724
  12.760         81.67	     9.899
  12.780         74.17	     9.434
  12.800         79.17	     9.747
  12.820         84.17	    10.050
  12.840         75.00	     9.487
  12.860         80.00	     9.798
  12.880         80.00	     9.798
  12.900         71.67	     9.274
  12.920         75.83	     9.539
  12.940         80.83	     9.849
  12.960         73.33	     9.381
  12.980         70.00	     9.165
  13.000         55.83	     8.185
  13.020         68.33	     9.055
  13.040         67.50	     9.000
  13.060         67.50	     9.000
  13.080         80.00	     9.798
  13.100         68.33	     9.055
  13.120         65.00	     8.832
  13.140         60.00	     8.485
  13.160         55.83	     8.185
  13.180         48.33	     7.616
  13.200         59.17	     8.426
  13.220         59.17	     8.426
  13.240         65.00	     8.832
  13.260         78.33	     9.695
  13.280         58.33	     8.367
  13.300         76.67	     9.592
  13.320         65.00	     8.832
  13.340         69.17	     9.110
  13.360         60.83	     8.544
  13.380         68.33	     9.055
  13.400         52.50	     7.937
  13.420         46.67	     7.483
  13.440         78.33	     9.695
  13.460         50.00	     7.746
  13.480         67.50	     9.000
  13.500         59.17	     8.426
  13.520         64.17	     8.775
  13.540         55.00	     8.124
  13.560         52.50	     7.937
  13.580         64.17	     8.775
  13.600         65.00	     8.832
  13.620         65.00	     8.832
  13.640         60.83	     8.544
  13.660         67.50	     9.000
  13.680         78.33	     9.695
  13.700         78.33	     9.695
  13.720         68.33	     9.055
  13.740         61.67	     8.602
  13.760         88.33	    10.296
  13.780         49.17	     7.681
  13.800         66.67	     8.944
  13.820         80.00	     9.798
  13.840         80.00	     9.798
  13.860         90.00	    10.392
  13.880         90.83	    10.440
  13.900        100.00	    10.954
  13.920         85.00	    10.100
  13.940         90.83	    10.440
  13.960         86.67	    10.198
  13.980         70.00	     9.165
  14.000         74.17	     9.434
  14.020         68.33	     9.055
  14.040         79.17	     9.747
  14.060         65.83	     8.888
  14.080         55.83	     8.185
  14.100         59.17	     8.426
  14.120         64.17	     8.775
  14.140         52.50	     7.937
  14.160         45.83	     7.416
  14.180         57.50	     8.307
  14.200         59.17	     8.426
  14.220         65.00	     8.832
  14.240         60.83	     8.544
  14.260         55.83	     8.185
  14.280         59.17	     8.426
  14.300         54.17	     8.062
  14.320         50.83	     7.810
  14.340         53.33	     8.000
  14.360         49.17	     7.681
  14.380         60.83	     8.544
  14.400         48.33	     7.616
  14.420         69.17	     9.110
  14.440         61.67	     8.602
  14.460         59.17	     8.426
  14.480         51.67	     7.874
  14.500         48.33	     7.616
  14.520         56.67	     8.246
  14.540         51.67	     7.874
  14.560         46.67	     7.483
  14.580         53.33	     8.000
  14.600         55.00	     8.124
  14.620         50.83	     7.810
  14.640         50.83	     7.810
  14.660         50.83	     7.810
  14.680         45.83	     7.416
  14.700         59.17	     8.426
  14.720         61.67	     8.602
  14.740         62.50	     8.660
  14.760         38.33	     6.782
  14.780         44.17	     7.280
  14.800         50.00	     7.746
  14.820         43.33	     7.211
  14.840         60.83	     8.544
  14.860         56.67	     8.246
  14.880         45.83	     7.416
  14.900         51.67	     7.874
  14.920         70.00	     9.165
  14.940         53.33	     8.000
  14.960         65.00	     8.832
  14.980         68.33	     9.055
  15.000         55.00	     8.124
  15.020         67.50	     9.000
  15.040         63.33	     8.718
  15.060         59.17	     8.426
  15.080         62.50	     8.660
  15.100         57.50	     8.307
  15.120         49.17	     7.681
  15.140         59.17	     8.426
  15.160         50.83	     7.810
  15.180         39.17	     6.856
  15.200         41.67	     7.071
  15.220         50.00	     7.746
  15.240         60.00	     8.485
  15.260         56.67	     8.246
  15.280         45.00	     7.348
  15.300         54.17	     8.062
  15.320         50.83	     7.810
  15.340         40.00	     6.928
  15.360         45.00	     7.348
  15.380         39.17	     6.856
  15.400         53.33	     8.000
  15.420         57.50	     8.307
  15.440         47.50	     7.550
  15.460         50.00	     7.746
  15.480         52.50	     7.937
  15.500         45.00	     7.348
  15.520         51.67	     7.874
  15.540         45.00	     7.348
  15.560         41.67	     7.071
  15.580         45.83	     7.416
  15.600         58.33	     8.367
  15.620         39.17	     6.856
  15.640         46.67	     7.483
  15.660         49.17	     7.681
  15.680         60.00	     8.485
  15.700         45.83	     7.416
  15.720         45.00	     7.348
  15.740         41.67	     7.071
  15.760         48.33	     7.616
  15.780         40.83	     7.000
  15.800         46.67	     7.483
  15.820         50.83	     7.810
  15.840         53.33	     8.000
  15.860         52.50	     7.937
  15.880         67.50	     9.000
  15.900         45.83	     7.416
  15.920         60.00	     8.485
  15.940         41.67	     7.071
  15.960         42.50	     7.141
  15.980         45.83	     7.416
  16.000         43.33	     7.211
  16.020         39.17	     6.856
  16.040         47.50	     7.550
  16.060         45.00	     7.348
  16.080         44.17	     7.280
  16.100         48.33	     7.616
  16.120         39.17	     6.856
  16.140         53.33	     8.000
  16.160         46.67	     7.483
  16.180         46.67	     7.483
  16.200         40.83	     7.000
  16.220         45.83	     7.416
  16.240         45.00	     7.348
  16.260         47.50	     7.550
  16.280         53.33	     8.000
  16.300         49.17	     7.681
  16.320         41.67	     7.071
  16.340         48.33	     7.616
  16.360         41.67	     7.071
  16.380         45.00	     7.348
  16.400         47.50	     7.550
  16.420         37.50	     6.708
  16.440         40.83	     7.000
  16.460         51.67	     7.874
  16.480         30.83	     6.083
  16.500         50.83	     7.810
  16.520         40.00	     6.928
  16.540         47.50	     7.550
  16.560         45.00	     7.348
  16.580         35.00	     6.481
  16.600         37.50	     6.708
  16.620         38.33	     6.782
  16.640         43.33	     7.211
  16.660         40.83	     7.000
  16.680         45.00	     7.348
  16.700         55.00	     8.124
  16.720         42.50	     7.141
  16.740         36.67	     6.633
  16.760         40.00	     6.928
  16.780         44.17	     7.280
  16.800         45.00	     7.348
  16.820         48.33	     7.616
  16.840         32.50	     6.245
  16.860         38.33	     6.782
  16.880         51.67	     7.874
  16.900         40.83	     7.000
  16.920         43.33	     7.211
  16.940         53.33	     8.000
  16.960         50.00	     7.746
  16.980         41.67	     7.071
  17.000         48.33	     7.616
  17.020         46.67	     7.483
  17.040         53.33	     8.000
  17.060         44.17	     7.280
  17.080         50.00	     7.746
  17.100         58.33	     8.367
  17.120         55.83	     8.185
  17.140         45.83	     7.416
  17.160         53.33	     8.000
  17.180         53.33	     8.000
  17.200         45.00	     7.348
  17.220         50.83	     7.810
  17.240         46.67	     7.483
  17.260         35.83	     6.557
  17.280         53.33	     8.000
  17.300         44.17	     7.280
  17.320         45.00	     7.348
  17.340         51.67	     7.874
  17.360         56.67	     8.246
  17.380         46.67	     7.483
  17.400         43.33	     7.211
  17.420         55.00	     8.124
  17.440         49.17	     7.681
  17.460         46.67	     7.483
  17.480         49.17	     7.681
  17.500         51.67	     7.874
  17.520         61.67	     8.602
  17.540         57.50	     8.307
  17.560         55.83	     8.185
  17.580         45.00	     7.348
  17.600         50.00	     7.746
  17.620         50.83	     7.810
  17.640         60.83	     8.544
  17.660         71.67	     9.274
  17.680         67.50	     9.000
  17.700         84.17	    10.050
  17.720        100.00	    10.954
  17.740        103.33	    11.136
  17.760        127.50	    12.369
  17.780        131.67	    12.570
  17.800        205.83	    15.716
  17.820        196.67	    15.362
  17.840        267.50	    17.916
  17.860        284.17	    18.466
  17.880        274.17	    18.138
  17.900        245.00	    17.146
  17.920        210.00	    15.875
  17.940        133.33	    12.649
  17.960        115.00	    11.747
  17.980         58.33	     8.367
  18.000         74.17	     9.434
  18.020         76.67	     9.592
  18.040         70.83	     9.220
  18.060         64.17	     8.775
  18.080         53.33	     8.000
  18.100         54.17	     8.062
  18.120         57.50	     8.307
  18.140         60.00	     8.485
  18.160         50.83	     7.810
  18.180         60.00	     8.485
  18.200         61.67	     8.602
  18.220         45.83	     7.416
  18.240         56.67	     8.246
  18.260         55.00	     8.124
  18.280         51.67	     7.874
  18.300         40.83	     7.000
  18.320         49.17	     7.681
  18.340         39.17	     6.856
  18.360         45.00	     7.348
  18.380         52.50	     7.937
  18.400         55.00	     8.124
  18.420         58.33	     8.367
  18.440         63.33	     8.718
  18.460         65.00	     8.832
  18.480         66.67	     8.944
  18.500         70.83	     9.220
  18.520         66.67	     8.944
  18.540         63.33	     8.718
  18.560         82.50	     9.950
  18.580         80.83	     9.849
  18.600         75.83	     9.539
  18.620         80.00	     9.798
  18.640         83.33	    10.000
  18.660        119.17	    11.958
  18.680        101.67	    11.045
  18.700         83.33	    10.000
  18.720        111.67	    11.576
  18.740        119.17	    11.958
  18.760        140.00	    12.961
  18.780        160.00	    13.856
  18.800        175.83	    14.526
  18.820        195.00	    15.297
  18.840        206.67	    15.748
  18.860        231.67	    16.673
  18.880        185.00	    14.900
  18.900        145.83	    13.229
  18.920        125.83	    12.288
  18.940         97.50	    10.817
  18.960         76.67	     9.592
  18.980         65.83	     8.888
  19.000         56.67	     8.246
  19.020         62.50	     8.660
  19.040         62.50	     8.660
  19.060         60.83	     8.544
  19.080         55.83	     8.185
  19.100         60.00	     8.485
  19.120         55.00	     8.124
  19.140         54.17	     8.062
  19.160         56.67	     8.246
  19.180         60.00	     8.485
  19.200         59.17	     8.426
  19.220         60.83	     8.544
  19.240         67.50	     9.000
  19.260         59.17	     8.426
  19.280         71.67	     9.274
  19.300         67.50	     9.000
  19.320         61.67	     8.602
  19.340         61.67	     8.602
  19.360         65.83	     8.888
  19.380         54.17	     8.062
  19.400         57.50	     8.307
  19.420         62.50	     8.660
  19.440         63.33	     8.718
  19.460         49.17	     7.681
  19.480         64.17	     8.775
  19.500         45.83	     7.416
  19.520         53.33	     8.000
  19.540         58.33	     8.367
  19.560         51.67	     7.874
  19.580         50.83	     7.810
  19.600         61.67	     8.602
  19.620         68.33	     9.055
  19.640         63.33	     8.718
  19.660         85.00	    10.100
  19.680         80.00	     9.798
  19.700        110.00	    11.489
  19.720         95.83	    10.724
  19.740        102.50	    11.091
  19.760        117.50	    11.874
  19.780         90.83	    10.440
  19.800        106.67	    11.314
  19.820        117.50	    11.874
  19.840        122.50	    12.124
  19.860        139.17	    12.923
  19.880        130.83	    12.530
  19.900        151.67	    13.491
  19.920        138.33	    12.884
  19.940        125.83	    12.288
  19.960        109.17	    11.446
  19.980        105.83	    11.269
  20.000         90.00	    10.392
  20.020         71.67	     9.274
  20.040         65.00	     8.832
  20.060         54.17	     8.062
  20.080         53.33	     8.000
  20.100         69.17	     9.110
  20.120         65.83	     8.888
  20.140         77.50	     9.644
  20.160         77.50	     9.644
  20.180         61.67	     8.602
  20.200         61.67	     8.602
  20.220         50.00	     7.746
  20.240         54.17	     8.062
  20.260         42.50	     7.141
  20.280         57.50	     8.307
  20.300         54.17	     8.062
  20.320         49.17	     7.681
  20.340         55.83	     8.185
  20.360         64.17	     8.775
  20.380         45.83	     7.416
  20.400         50.00	     7.746
  20.420         46.67	     7.483
  20.440         48.33	     7.616
  20.460         40.00	     6.928
  20.480         49.17	     7.681
  20.500         65.00	     8.832
  20.520         44.17	     7.280
  20.540         67.50	     9.000
  20.560         54.17	     8.062
  20.580         59.17	     8.426
  20.600         58.33	     8.367
  20.620         68.33	     9.055
  20.640         66.67	     8.944
  20.660         75.00	     9.487
  20.680         66.67	     8.944
  20.700         73.33	     9.381
  20.720         70.00	     9.165
  20.740         93.33	    10.583
  20.760         65.83	     8.888
  20.780         82.50	     9.950
  20.800        103.33	    11.136
  20.820        130.00	    12.490
  20.840        155.83	    13.675
  20.860        249.17	    17.292
  20.880        330.00	    19.900
  20.900        345.83	    20.372
  20.920        395.83	    21.794
  20.940        353.33	    20.591
  20.960        262.50	    17.748
  20.980        197.50	    15.395
  21.000        144.17	    13.153
  21.020        110.83	    11.533
  21.040         90.83	    10.440
  21.060        105.00	    11.225
  21.080         86.67	    10.198
  21.100         77.50	     9.644
  21.120         93.33	    10.583
  21.140         75.83	     9.539
  21.160         69.17	     9.110
  21.180         60.83	     8.544
  21.200         51.67	     7.874
  21.220         51.67	     7.874
  21.240         58.33	     8.367
  21.260         49.17	     7.681
  21.280         56.67	     8.246
  21.300         48.33	     7.616
  21.320         48.33	     7.616
  21.340         40.83	     7.000
  21.360         49.17	     7.681
  21.380         38.33	     6.782
  21.400         40.00	     6.928
  21.420         65.83	     8.888
  21.440         60.00	     8.485
  21.460         61.67	     8.602
  21.480         54.17	     8.062
  21.500         51.67	     7.874
  21.520         49.17	     7.681
  21.540         58.33	     8.367
  21.560         55.83	     8.185
  21.580         53.33	     8.000
  21.600         60.83	     8.544
  21.620         50.83	     7.810
  21.640         69.17	     9.110
  21.660         59.17	     8.426
  21.680         60.83	     8.544
  21.700         65.00	     8.832
  21.720         57.50	     8.307
  21.740         60.00	     8.485
  21.760         60.83	     8.544
  21.780         52.50	     7.937
  21.800         55.83	     8.185
  21.820         53.33	     8.000
  21.840         59.17	     8.426
  21.860         46.67	     7.483
  21.880         57.50	     8.307
  21.900         55.83	     8.185
  21.920         70.83	     9.220
  21.940         65.00	     8.832
  21.960         89.17	    10.344
  21.980        101.67	    11.045
  22.000        119.17	    11.958
  22.020        152.50	    13.528
  22.040        169.17	    14.248
  22.060        235.83	    16.823
  22.080        274.17	    18.138
  22.100        282.50	    18.412
  22.120        263.33	    17.776
  22.140        224.17	    16.401
  22.160        164.17	    14.036
  22.180        111.67	    11.576
  22.200         92.50	    10.536
  22.220         81.67	     9.899
  22.240         66.67	     8.944
  22.260         59.17	     8.426
  22.280         76.67	     9.592
  22.300         54.17	     8.062
  22.320         47.50	     7.550
  22.340         58.33	     8.367
  22.360         44.17	     7.280
  22.380         62.50	     8.660
  22.400         66.67	     8.944
  22.420         54.17	     8.062
  22.440         55.83	     8.185
  22.460         62.50	     8.660
  22.480         60.00	     8.485
  22.500         55.00	     8.124
  22.520         73.33	     9.381
  22.540         55.00	     8.124
  22.560         65.00	     8.832
  22.580         62.50	     8.660
  22.600         73.33	     9.381
  22.620         81.67	     9.899
  22.640         61.67	     8.602
  22.660         53.33	     8.000
  22.680         47.50	     7.550
  22.700         45.00	     7.348
  22.720         53.33	     8.000
  22.740         55.00	     8.124
  22.760         53.33	     8.000
  22.780         49.17	     7.681
  22.800         74.17	     9.434
  22.820         65.83	     8.888
  22.840         57.50	     8.307
  22.860         72.50	     9.327
  22.880         99.17	    10.909
  22.900        115.00	    11.747
  22.920        128.33	    12.410
  22.940        150.83	    13.454
  22.960        154.17	    13.601
  22.980        145.83	    13.229
  23.000        151.67	    13.491
  23.020        142.50	    13.077
  23.040        125.83	    12.288
  23.060        131.67	    12.570
  23.080        143.33	    13.115
  23.100        132.50	    12.610
  23.120        124.17	    12.207
  23.140         92.50	    10.536
  23.160         91.67	    10.488
  23.180         85.83	    10.149
  23.200         75.00	     9.487
  23.220         54.17	     8.062
  23.240         64.17	     8.775
  23.260         60.83	     8.544
  23.280         65.00	     8.832
  23.300         55.83	     8.185
  23.320         52.50	     7.937
  23.340         56.67	     8.246
  23.360         55.00	     8.124
  23.380         55.00	     8.124
  23.400         50.00	     7.746
  23.420         57.50	     8.307
  23.440         54.17	     8.062
  23.460         70.00	     9.165
  23.480         63.33	     8.718
  23.500         85.83	    10.149
  23.520        105.83	    11.269
  23.540        175.00	    14.491
  23.560        203.33	    15.620
  23.580        222.50	    16.340
  23.600        209.17	    15.843
  23.620        217.50	    16.155
  23.640        186.67	    14.967
  23.660        167.50	    14.177
  23.680        133.33	    12.649
  23.700        130.83	    12.530
  23.720        118.33	    11.916
  23.740        100.83	    11.000
  23.760         99.17	    10.909
  23.780        106.67	    11.314
  23.800        100.83	    11.000
  23.820        118.33	    11.916
  23.840        130.00	    12.490
  23.860        116.67	    11.832
  23.880        116.67	    11.832
  23.900        105.83	    11.269
  23.920        115.83	    11.790
  23.940        101.67	    11.045
  23.960        100.83	    11.000
  23.980         95.83	    10.724
  24.000        102.50	    11.091
  24.020         92.50	    10.536
  24.040         89.17	    10.344
  24.060         80.00	     9.798
  24.080         80.00	     9.798
  24.100         83.33	    10.000
  24.120         89.17	    10.344
  24.140         85.83	    10.149
  24.160        101.67	    11.045
  24.180        126.67	    12.329
  24.200        125.83	    12.288
  24.220        130.83	    12.530
  24.240        139.17	    12.923
  24.260        124.17	    12.207
  24.280        162.50	    13.964
  24.300        160.83	    13.892
  24.320        166.67	    14.142
  24.340        164.17	    14.036
  24.360        181.67	    14.765
  24.380        205.83	    15.716
  24.400        192.50	    15.199
  24.420        154.17	    13.601
  24.440        136.67	    12.806
  24.460        154.17	    13.601
  24.480        106.67	    11.314
  24.500        105.00	    11.225
  24.520        103.33	    11.136
  24.540        116.67	    11.832
  24.560        119.17	    11.958
  24.580        121.67	    12.083
  24.600        172.50	    14.387
  24.620        187.50	    15.000
  24.640        219.17	    16.217
  24.660        234.17	    16.763
  24.680        298.33	    18.921
  24.700        265.00	    17.833
  24.720        278.33	    18.276
  24.740        275.83	    18.193
  24.760        265.83	    17.861
  24.780        244.17	    17.117
  24.800        216.67	    16.125
  24.820        174.17	    14.457
  24.840        166.67	    14.142
  24.860        129.17	    12.450
  24.880        136.67	    12.806
  24.900        128.33	    12.410
  24.920        142.50	    13.077
  24.940        137.50	    12.845
  24.960        157.50	    13.748
  24.980        155.83	    13.675
  25.000        169.17	    14.248
  25.020        150.83	    13.454
  25.040        159.17	    13.820
  25.060        175.00	    14.491
  25.080        210.00	    15.875
  25.100        218.33	    16.186
  25.120        232.50	    16.703
  25.140        249.17	    17.292
  25.160        300.00	    18.974
  25.180        385.83	    21.517
  25.200        410.00	    22.181
  25.220        427.50	    22.650
  25.240        433.33	    22.804
  25.260        362.50	    20.857
  25.280        295.83	    18.841
  25.300        231.67	    16.673
  25.320        204.17	    15.652
  25.340        157.50	    13.748
  25.360        120.00	    12.000
  25.380        120.83	    12.042
  25.400        107.50	    11.358
  25.420        125.00	    12.247
  25.440        145.83	    13.229
  25.460        186.67	    14.967
  25.480        173.33	    14.422
  25.500        189.17	    15.067
  25.520        200.83	    15.524
  25.540        233.33	    16.733
  25.560        274.17	    18.138
  25.580        254.17	    17.464
  25.600        239.17	    16.941
  25.620        220.00	    16.248
  25.640        191.67	    15.166
  25.660        195.00	    15.297
  25.680        153.33	    13.565
  25.700        151.67	    13.491
  25.720        118.33	    11.916
  25.740        135.00	    12.728
  25.760        109.17	    11.446
  25.780        105.00	    11.225
  25.800        104.17	    11.180
  25.820         89.17	    10.344
  25.840         86.67	    10.198
  25.860         80.00	     9.798
  25.880         80.00	     9.798
  25.900         82.50	     9.950
  25.920         94.17	    10.630
  25.940         76.67	     9.592
  25.960         69.17	     9.110
  25.980         63.33	     8.718
  26.000         81.67	     9.899
  26.020         88.33	    10.296
  26.040         65.83	     8.888
  26.060         78.33	     9.695
  26.080         65.83	     8.888
  26.100         80.83	     9.849
  26.120         73.33	     9.381
  26.140         80.83	     9.849
  26.160         98.33	    10.863
  26.180         96.67	    10.770
  26.200        103.33	    11.136
  26.220        100.00	    10.954
  26.240        109.17	    11.446
  26.260         85.00	    10.100
  26.280        104.17	    11.180
  26.300        124.17	    12.207
  26.320        116.67	    11.832
  26.340        124.17	    12.207
  26.360        150.83	    13.454
  26.380        152.50	    13.528
  26.400        170.00	    14.283
  26.420        190.83	    15.133
  26.440        192.50	    15.199
  26.460        225.00	    16.432
  26.480        234.17	    16.763
  26.500        230.00	    16.613
  26.520        265.00	    17.833
  26.540        260.83	    17.692
  26.560        332.50	    19.975
  26.580        388.33	    21.587
  26.600        494.17	    24.352
  26.620        630.83	    27.514
  26.640        888.33	    32.650
  26.660       1257.50	    38.846
  26.680       1791.67	    46.368
  26.700       2125.83	    50.507
  26.720       1898.33	    47.728
  26.740       1453.33	    41.761
  26.760       1327.50	    39.912
  26.780       1098.33	    36.304
  26.800        781.67	    30.627
  26.820        588.33	    26.571
  26.840        649.17	    27.911
  26.860        653.33	    28.000
  26.880        752.50	    30.050
  26.900        804.17	    31.064
  26.920        771.67	    30.430
  26.940        770.00	    30.397
  26.960        666.67	    28.284
  26.980        505.83	    24.637
  27.000        453.33	    23.324
  27.020        327.50	    19.824
  27.040        256.67	    17.550
  27.060        226.67	    16.492
  27.080        168.33	    14.213
  27.100        171.67	    14.353
  27.120        166.67	    14.142
  27.140        157.50	    13.748
  27.160        150.83	    13.454
  27.180        130.00	    12.490
  27.200        144.17	    13.153
  27.220        123.33	    12.166
  27.240        125.00	    12.247
  27.260        111.67	    11.576
  27.280        110.83	    11.533
  27.300        127.50	    12.369
  27.320        101.67	    11.045
  27.340        120.83	    12.042
  27.360        100.00	    10.954
  27.380        124.17	    12.207
  27.400         87.50	    10.247
  27.420        104.17	    11.180
  27.440        105.83	    11.269
  27.460        110.83	    11.533
  27.480        110.83	    11.533
  27.500        154.17	    13.601
  27.520        159.17	    13.820
  27.540        150.83	    13.454
  27.560        155.00	    13.638
  27.580        154.17	    13.601
  27.600        160.83	    13.892
  27.620        130.00	    12.490
  27.640        140.00	    12.961
  27.660        119.17	    11.958
  27.680        155.83	    13.675
  27.700        163.33	    14.000
  27.720        165.83	    14.107
  27.740        220.83	    16.279
  27.760        270.83	    18.028
  27.780        356.67	    20.688
  27.800        350.00	    20.494
  27.820        369.17	    21.048
  27.840        386.67	    21.541
  27.860        398.33	    21.863
  27.880        394.17	    21.749
  27.900        425.83	    22.605
  27.920        480.83	    24.021
  27.940        606.67	    26.981
  27.960        638.33	    27.677
  27.980        631.67	    27.532
  28.000        560.00	    25.923
  28.020        563.33	    26.000
  28.040        519.17	    24.960
  28.060        431.67	    22.760
  28.080        344.17	    20.322
  28.100        280.83	    18.358
  28.120        232.50	    16.703
  28.140        196.67	    15.362
  28.160        173.33	    14.422
  28.180        153.33	    13.565
  28.200        175.83	    14.526
  28.220        145.00	    13.191
  28.240        151.67	    13.491
  28.260        183.33	    14.832
  28.280        157.50	    13.748
  28.300        161.67	    13.928
  28.320        160.83	    13.892
  28.340        148.33	    13.342
  28.360        185.00	    14.900
  28.380        142.50	    13.077
  28.400        156.67	    13.711
  28.420        140.83	    13.000
  28.440        114.17	    11.705
  28.460        101.67	    11.045
  28.480         95.83	    10.724
  28.500        104.17	    11.180
  28.520        110.00	    11.489
  28.540        122.50	    12.124
  28.560        143.33	    13.115
  28.580        162.50	    13.964
  28.600        189.17	    15.067
  28.620        216.67	    16.125
  28.640        190.83	    15.133
  28.660        200.83	    15.524
  28.680        209.17	    15.843
  28.700        173.33	    14.422
  28.720        140.00	    12.961
  28.740        135.00	    12.728
  28.760        139.17	    12.923
  28.780        131.67	    12.570
  28.800        105.00	    11.225
  28.820         95.00	    10.677
  28.840         89.17	    10.344
  28.860         86.67	    10.198
  28.880         90.83	    10.440
  28.900        102.50	    11.091
  28.920         80.00	     9.798
  28.940         72.50	     9.327
  28.960         66.67	     8.944
  28.980         58.33	     8.367
  29.000         59.17	     8.426
  29.020         43.33	     7.211
  29.040         55.00	     8.124
  29.060         55.83	     8.185
  29.080         51.67	     7.874
  29.100         45.00	     7.348
  29.120         44.17	     7.280
  29.140         59.17	     8.426
  29.160         50.83	     7.810
  29.180         54.17	     8.062
  29.200         48.33	     7.616
  29.220         49.17	     7.681
  29.240         53.33	     8.000
  29.260         43.33	     7.211
  29.280         40.00	     6.928
  29.300         60.00	     8.485
  29.320         45.83	     7.416
  29.340         50.00	     7.746
  29.360         53.33	     8.000
  29.380         53.33	     8.000
  29.400         45.83	     7.416
  29.420         44.17	     7.280
  29.440         49.17	     7.681
  29.460         62.50	     8.660
  29.480         49.17	     7.681
  29.500         40.00	     6.928
  29.520         57.50	     8.307
  29.540         52.50	     7.937
  29.560         60.00	     8.485
  29.580         49.17	     7.681
  29.600         46.67	     7.483
  29.620         57.50	     8.307
  29.640         48.33	     7.616
  29.660         55.00	     8.124
  29.680         63.33	     8.718
  29.700         75.00	     9.487
  29.720         60.83	     8.544
  29.740         65.00	     8.832
  29.760         83.33	    10.000
  29.780         92.50	    10.536
  29.800        103.33	    11.136
  29.820        124.17	    12.207
  29.840        160.83	    13.892
  29.860        155.83	    13.675
  29.880        215.00	    16.062
  29.900        220.00	    16.248
  29.920        243.33	    17.088
  29.940        250.83	    17.349
  29.960        228.33	    16.553
  29.980        246.67	    17.205
  30.000        223.33	    16.371
  30.020        197.50	    15.395
  30.040        154.17	    13.601
  30.060        155.83	    13.675
  30.080        143.33	    13.115
  30.100        138.33	    12.884
  30.120        135.00	    12.728
  30.140        143.33	    13.115
  30.160        125.00	    12.247
  30.180        114.17	    11.705
  30.200         98.33	    10.863
  30.220        117.50	    11.874
  30.240        109.17	    11.446
  30.260        110.00	    11.489
  30.280        109.17	    11.446
  30.300        102.50	    11.091
  30.320        110.83	    11.533
  30.340        111.67	    11.576
  30.360        111.67	    11.576
  30.380        107.50	    11.358
  30.400        124.17	    12.207
  30.420        125.83	    12.288
  30.440        137.50	    12.845
  30.460        114.17	    11.705
  30.480        100.00	    10.954
  30.500        168.33	    14.213
  30.520        178.33	    14.629
  30.540        180.00	    14.697
  30.560        150.83	    13.454
  30.580        139.17	    12.923
  30.600        119.17	    11.958
  30.620        119.17	    11.958
  30.640         93.33	    10.583
  30.660         85.00	    10.100
  30.680         70.83	     9.220
  30.700         57.50	     8.307
  30.720         66.67	     8.944
  30.740         65.83	     8.888
  30.760         70.83	     9.220
  30.780         66.67	     8.944
  30.800         71.67	     9.274
  30.820         70.83	     9.220
  30.840         88.33	    10.296
  30.860         90.00	    10.392
  30.880         87.50	    10.247
  30.900         87.50	    10.247
  30.920         84.17	    10.050
  30.940         79.17	     9.747
  30.960         74.17	     9.434
  30.980         66.67	     8.944
  31.000         79.17	     9.747
  31.020         80.00	     9.798
  31.040         66.67	     8.944
  31.060         85.83	    10.149
  31.080         95.83	    10.724
  31.100        128.33	    12.410
  31.120        129.17	    12.450
  31.140        114.17	    11.705
  31.160        112.50	    11.619
  31.180        132.50	    12.610
  31.200        129.17	    12.450
  31.220        157.50	    13.748
  31.240        160.00	    13.856
  31.260        170.00	    14.283
  31.280        205.00	    15.684
  31.300        186.67	    14.967
  31.320        202.50	    15.588
  31.340        191.67	    15.166
  31.360        181.67	    14.765
  31.380        173.33	    14.422
  31.400        164.17	    14.036
  31.420        132.50	    12.610
  31.440        129.17	    12.450
  31.460        119.17	    11.958
  31.480         99.17	    10.909
  31.500         90.00	    10.392
  31.520         86.67	    10.198
  31.540        107.50	    11.358
  31.560         98.33	    10.863
  31.580         86.67	    10.198
  31.600        121.67	    12.083
  31.620        117.50	    11.874
  31.640        129.17	    12.450
  31.660        134.17	    12.689
  31.680        113.33	    11.662
  31.700        108.33	    11.402
  31.720         95.00	    10.677
  31.740         78.33	     9.695
  31.760         89.17	    10.344
  31.780         77.50	     9.644
  31.800         63.33	     8.718
  31.820         62.50	     8.660
  31.840         67.50	     9.000
  31.860         70.00	     9.165
  31.880         60.00	     8.485
  31.900         74.17	     9.434
  31.920         81.67	     9.899
  31.940         80.00	     9.798
  31.960         71.67	     9.274
  31.980         79.17	     9.747
  32.000         88.33	    10.296
  32.020         97.50	    10.817
  32.040         95.00	    10.677
  32.060         97.50	    10.817
  32.080         95.83	    10.724
  32.100        130.00	    12.490
  32.120        137.50	    12.845
  32.140        158.33	    13.784
  32.160        154.17	    13.601
  32.180        122.50	    12.124
  32.200        133.33	    12.649
  32.220        123.33	    12.166
  32.240        102.50	    11.091
  32.260         85.83	    10.149
  32.280         70.83	     9.220
  32.300         60.83	     8.544
  32.320         71.67	     9.274
  32.340         62.50	     8.660
  32.360         59.17	     8.426
  32.380         49.17	     7.681
  32.400         57.50	     8.307
  32.420         41.67	     7.071
  32.440         51.67	     7.874
  32.460         37.50	     6.708
  32.480         44.17	     7.280
  32.500         43.33	     7.211
  32.520         45.00	     7.348
  32.540         41.67	     7.071
  32.560         42.50	     7.141
  32.580         42.50	     7.141
  32.600         45.83	     7.416
  32.620         48.33	     7.616
  32.640         45.00	     7.348
  32.660         33.33	     6.325
  32.680         43.33	     7.211
  32.700         31.67	     6.164
  32.720         34.17	     6.403
  32.740         49.17	     7.681
  32.760         43.33	     7.211
  32.780         35.00	     6.481
  32.800         38.33	     6.782
  32.820         36.67	     6.633
  32.840         47.50	     7.550
  32.860         43.33	     7.211
  32.880         49.17	     7.681
  32.900         54.17	     8.062
  32.920         40.83	     7.000
  32.940         44.17	     7.280
  32.960         43.33	     7.211
  32.980         45.00	     7.348
  33.000         50.83	     7.810
  33.020         50.83	     7.810
  33.040         64.17	     8.775
  33.060         79.17	     9.747
  33.080         71.67	     9.274
  33.100        105.83	    11.269
  33.120         86.67	    10.198
  33.140         98.33	    10.863
  33.160         77.50	     9.644
  33.180         62.50	     8.660
  33.200         80.00	     9.798
  33.220         62.50	     8.660
  33.240         60.83	     8.544
  33.260         64.17	     8.775
  33.280         57.50	     8.307
  33.300         45.00	     7.348
  33.320         44.17	     7.280
  33.340         53.33	     8.000
  33.360         56.67	     8.246
  33.380         44.17	     7.280
  33.400         52.50	     7.937
  33.420         45.83	     7.416
  33.440         56.67	     8.246
  33.460         43.33	     7.211
  33.480         62.50	     8.660
  33.500         47.50	     7.550
  33.520         62.50	     8.660
  33.540         59.17	     8.426
  33.560         56.67	     8.246
  33.580         57.50	     8.307
  33.600         55.00	     8.124
  33.620         47.50	     7.550
  33.640         55.83	     8.185
  33.660         49.17	     7.681
  33.680         60.00	     8.485
  33.700         52.50	     7.937
  33.720         66.67	     8.944
  33.740         49.17	     7.681
  33.760         52.50	     7.937
  33.780         45.00	     7.348
  33.800         40.00	     6.928
  33.820         58.33	     8.367
  33.840         46.67	     7.483
  33.860         55.00	     8.124
  33.880         57.50	     8.307
  33.900         60.00	     8.485
  33.920         50.83	     7.810
  33.940         83.33	    10.000
  33.960         81.67	     9.899
  33.980         86.67	    10.198
  34.000         80.83	     9.849
  34.020         80.83	     9.849
  34.040         72.50	     9.327
  34.060         75.83	     9.539
  34.080         71.67	     9.274
  34.100         60.83	     8.544
  34.120         92.50	    10.536
  34.140         71.67	     9.274
  34.160         66.67	     8.944
  34.180         66.67	     8.944
  34.200         73.33	     9.381
  34.220         64.17	     8.775
  34.240         54.17	     8.062
  34.260         50.83	     7.810
  34.280         65.00	     8.832
  34.300         50.00	     7.746
  34.320         72.50	     9.327
  34.340         67.50	     9.000
  34.360         69.17	     9.110
  34.380         90.00	    10.392
  34.400         75.83	     9.539
  34.420         63.33	     8.718
  34.440         81.67	     9.899
  34.460         73.33	     9.381
  34.480         83.33	    10.000
  34.500         95.83	    10.724
  34.520        133.33	    12.649
  34.540        126.67	    12.329
  34.560        120.00	    12.000
  34.580        141.67	    13.038
  34.600        138.33	    12.884
  34.620        152.50	    13.528
  34.640        125.83	    12.288
  34.660        125.00	    12.247
  34.680        115.83	    11.790
  34.700        112.50	    11.619
  34.720        126.67	    12.329
  34.740        100.83	    11.000
  34.760         88.33	    10.296
  34.780         65.83	     8.888
  34.800         75.83	     9.539
  34.820         90.83	    10.440
  34.840        100.83	    11.000
  34.860         89.17	    10.344
  34.880        134.17	    12.689
  34.900        139.17	    12.923
  34.920        164.17	    14.036
  34.940        159.17	    13.820
  34.960        191.67	    15.166
  34.980        160.83	    13.892
  35.000        213.33	    16.000
  35.020        217.50	    16.155
  35.040        185.00	    14.900
  35.060        210.00	    15.875
  35.080        221.67	    16.310
  35.100        187.50	    15.000
  35.120        178.33	    14.629
  35.140        158.33	    13.784
  35.160        161.67	    13.928
  35.180        140.83	    13.000
  35.200        120.83	    12.042
  35.220        114.17	    11.705
  35.240        110.00	    11.489
  35.260         99.17	    10.909
  35.280         88.33	    10.296
  35.300         87.50	    10.247
  35.320         96.67	    10.770
  35.340         91.67	    10.488
  35.360         95.00	    10.677
  35.380        118.33	    11.916
  35.400        130.00	    12.490
  35.420         91.67	    10.488
  35.440         98.33	    10.863
  35.460        103.33	    11.136
  35.480        115.83	    11.790
  35.500        124.17	    12.207
  35.520        129.17	    12.450
  35.540        143.33	    13.115
  35.560        110.83	    11.533
  35.580         94.17	    10.630
  35.600         95.83	    10.724
  35.620        104.17	    11.180
  35.640         98.33	    10.863
  35.660         82.50	     9.950
  35.680         79.17	     9.747
  35.700         76.67	     9.592
  35.720         75.00	     9.487
  35.740         70.00	     9.165
  35.760         71.67	     9.274
  35.780         81.67	     9.899
  35.800         65.83	     8.888
  35.820         80.83	     9.849
  35.840         67.50	     9.000
  35.860         85.83	    10.149
  35.880         74.17	     9.434
  35.900         60.83	     8.544
  35.920         65.00	     8.832
  35.940         60.00	     8.485
  35.960         64.17	     8.775
  35.980         64.17	     8.775
  36.000         85.83	    10.149
  36.020         75.83	     9.539
  36.040         96.67	    10.770
  36.060         72.50	     9.327
  36.080         95.83	    10.724
  36.100         94.17	    10.630
  36.120        112.50	    11.619
  36.140        112.50	    11.619
  36.160         94.17	    10.630
  36.180         86.67	    10.198
  36.200         83.33	    10.000
  36.220         84.17	    10.050
  36.240         90.83	    10.440
  36.260         72.50	     9.327
  36.280         61.67	     8.602
  36.300         65.00	     8.832
  36.320         53.33	     8.000
  36.340         53.33	     8.000
  36.360         56.67	     8.246
  36.380         57.50	     8.307
  36.400         61.67	     8.602
  36.420         68.33	     9.055
  36.440         66.67	     8.944
  36.460         64.17	     8.775
  36.480         73.33	     9.381
  36.500         94.17	    10.630
  36.520        111.67	    11.576
  36.540        106.67	    11.314
  36.560        165.00	    14.071
  36.580        201.67	    15.556
  36.600        208.33	    15.811
  36.620        201.67	    15.556
  36.640        153.33	    13.565
  36.660        135.00	    12.728
  36.680        173.33	    14.422
  36.700        157.50	    13.748
  36.720        142.50	    13.077
  36.740        127.50	    12.369
  36.760        100.83	    11.000
  36.780        116.67	    11.832
  36.800         95.83	    10.724
  36.820         99.17	    10.909
  36.840        104.17	    11.180
  36.860         90.00	    10.392
  36.880         85.83	    10.149
  36.900         73.33	     9.381
  36.920         89.17	    10.344
  36.940         68.33	     9.055
  36.960         60.00	     8.485
  36.980         66.67	     8.944
  37.000         65.83	     8.888
  37.020         70.00	     9.165
  37.040         56.67	     8.246
  37.060         64.17	     8.775
  37.080         60.00	     8.485
  37.100         60.00	     8.485
  37.120         40.00	     6.928
  37.140         55.00	     8.124
  37.160         56.67	     8.246
  37.180         50.83	     7.810
  37.200         55.83	     8.185
  37.220         67.50	     9.000
  37.240         60.83	     8.544
  37.260         64.17	     8.775
  37.280         50.00	     7.746
  37.300         83.33	    10.000
  37.320         63.33	     8.718
  37.340         74.17	     9.434
  37.360         65.83	     8.888
  37.380         75.00	     9.487
  37.400        100.83	    11.000
  37.420         79.17	     9.747
  37.440         84.17	    10.050
  37.460         85.00	    10.100
  37.480         94.17	    10.630
  37.500         91.67	    10.488
  37.520         92.50	    10.536
  37.540        104.17	    11.180
  37.560        116.67	    11.832
  37.580        104.17	    11.180
  37.600        112.50	    11.619
  37.620        121.67	    12.083
  37.640        109.17	    11.446
  37.660        119.17	    11.958
  37.680        110.00	    11.489
  37.700         99.17	    10.909
  37.720        111.67	    11.576
  37.740        115.83	    11.790
  37.760        122.50	    12.124
  37.780        112.50	    11.619
  37.800        105.83	    11.269
  37.820        107.50	    11.358
  37.840         83.33	    10.000
  37.860         80.83	     9.849
  37.880         69.17	     9.110
  37.900         70.00	     9.165
  37.920         65.83	     8.888
  37.940         58.33	     8.367
  37.960         50.83	     7.810
  37.980         65.00	     8.832
  38.000         50.00	     7.746
  38.020         46.67	     7.483
  38.040         47.50	     7.550
  38.060         34.17	     6.403
  38.080         49.17	     7.681
  38.100         49.17	     7.681
  38.120         56.67	     8.246
  38.140         46.67	     7.483
  38.160         40.00	     6.928
  38.180         46.67	     7.483
  38.200         35.83	     6.557
  38.220         41.67	     7.071
  38.240         31.67	     6.164
  38.260         35.00	     6.481
  38.280         44.17	     7.280
  38.300         36.67	     6.633
  38.320         36.67	     6.633
  38.340         34.17	     6.403
  38.360         35.00	     6.481
  38.380         40.83	     7.000
  38.400         31.67	     6.164
  38.420         45.00	     7.348
  38.440         38.33	     6.782
  38.460         50.83	     7.810
  38.480         40.83	     7.000
  38.500         49.17	     7.681
  38.520         49.17	     7.681
  38.540         50.00	     7.746
  38.560         43.33	     7.211
  38.580         46.67	     7.483
  38.600         51.67	     7.874
  38.620         51.67	     7.874
  38.640         48.33	     7.616
  38.660         50.83	     7.810
  38.680         45.83	     7.416
  38.700         43.33	     7.211
  38.720         45.83	     7.416
  38.740         55.00	     8.124
  38.760         50.00	     7.746
  38.780         56.67	     8.246
  38.800         58.33	     8.367
  38.820         61.67	     8.602
  38.840         48.33	     7.616
  38.860         59.17	     8.426
  38.880         70.00	     9.165
  38.900         59.17	     8.426
  38.920         54.17	     8.062
  38.940         41.67	     7.071
  38.960         51.67	     7.874
  38.980         55.00	     8.124
  39.000         40.00	     6.928
  39.020         40.83	     7.000
  39.040         45.83	     7.416
  39.060         59.17	     8.426
  39.080         40.83	     7.000
  39.100         40.83	     7.000
  39.120         43.33	     7.211
  39.140         44.17	     7.280
  39.160         44.17	     7.280
  39.180         50.83	     7.810
  39.200         41.67	     7.071
  39.220         48.33	     7.616
  39.240         40.83	     7.000
  39.260         51.67	     7.874
  39.280         39.17	     6.856
  39.300         43.33	     7.211
  39.320         33.33	     6.325
  39.340         38.33	     6.782
  39.360         33.33	     6.325
  39.380         45.00	     7.348
  39.400         51.67	     7.874
  39.420         55.00	     8.124
  39.440         75.83	     9.539
  39.460         81.67	     9.899
  39.480        121.67	    12.083
  39.500        144.17	    13.153
  39.520        147.50	    13.304
  39.540        126.67	    12.329
  39.560        115.00	    11.747
  39.580         87.50	    10.247
  39.600         98.33	    10.863
  39.620        102.50	    11.091
  39.640        106.67	    11.314
  39.660         82.50	     9.950
  39.680         70.00	     9.165
  39.700         61.67	     8.602
  39.720         69.17	     9.110
  39.740         60.00	     8.485
  39.760         71.67	     9.274
  39.780         50.83	     7.810
  39.800         57.50	     8.307
  39.820         61.67	     8.602
  39.840         53.33	     8.000
  39.860         53.33	     8.000
  39.880         55.83	     8.185
  39.900         60.00	     8.485
  39.920         64.17	     8.775
  39.940         57.50	     8.307
  39.960         60.83	     8.544
  39.980         60.00	     8.485
  40.000         45.00	     7.348
  40.020         50.00	     7.746
  40.040         53.33	     8.000
  40.060         55.00	     8.124
  40.080         60.00	     8.485
  40.100         40.83	     7.000
  40.120         48.33	     7.616
  40.140         57.50	     8.307
  40.160         47.50	     7.550
  40.180         49.17	     7.681
  40.200         60.00	     8.485
  40.220         50.00	     7.746
  40.240         44.17	     7.280
  40.260         58.33	     8.367
  40.280         60.00	     8.485
  40.300         87.50	    10.247
  40.320        113.33	    11.662
  40.340        109.17	    11.446
  40.360         75.83	     9.539
  40.380         60.00	     8.485
  40.400         70.00	     9.165
  40.420         80.83	     9.849
  40.440         78.33	     9.695
  40.460         71.67	     9.274
  40.480         68.33	     9.055
  40.500         47.50	     7.550
  40.520         46.67	     7.483
  40.540         51.67	     7.874
  40.560         45.00	     7.348
  40.580         38.33	     6.782
  40.600         38.33	     6.782
  40.620         48.33	     7.616
  40.640         48.33	     7.616
  40.660         40.83	     7.000
  40.680         58.33	     8.367
  40.700         50.00	     7.746
  40.720         48.33	     7.616
  40.740         28.33	     5.831
  40.760         41.67	     7.071
  40.780         46.67	     7.483
  40.800         46.67	     7.483
  40.820         45.83	     7.416
  40.840         49.17	     7.681
  40.860         41.67	     7.071
  40.880         38.33	     6.782
  40.900         54.17	     8.062
  40.920         45.00	     7.348
  40.940         44.17	     7.280
  40.960         40.83	     7.000
  40.980         46.67	     7.483
  41.000         48.33	     7.616
  41.020         44.17	     7.280
  41.040         52.50	     7.937
  41.060         43.33	     7.211
  41.080         46.67	     7.483
  41.100         43.33	     7.211
  41.120         39.17	     6.856
  41.140         37.50	     6.708
  41.160         50.83	     7.810
  41.180         56.67	     8.246
  41.200         51.67	     7.874
  41.220         44.17	     7.280
  41.240         53.33	     8.000
  41.260         56.67	     8.246
  41.280         46.67	     7.483
  41.300         57.50	     8.307
  41.320         82.50	     9.950
  41.340         70.83	     9.220
  41.360         56.67	     8.246
  41.380         61.67	     8.602
  41.400         57.50	     8.307
  41.420         56.67	     8.246
  41.440         63.33	     8.718
  41.460         55.00	     8.124
  41.480         51.67	     7.874
  41.500         59.17	     8.426
  41.520         54.17	     8.062
  41.540         42.50	     7.141
  41.560         53.33	     8.000
  41.580         64.17	     8.775
  41.600         51.67	     7.874
  41.620         50.83	     7.810
  41.640         69.17	     9.110
  41.660         53.33	     8.000
  41.680         63.33	     8.718
  41.700         68.33	     9.055
  41.720         67.50	     9.000
  41.740         70.00	     9.165
  41.760         74.17	     9.434
  41.780         68.33	     9.055
  41.800         68.33	     9.055
  41.820         70.00	     9.165
  41.840         58.33	     8.367
  41.860         64.17	     8.775
  41.880         60.00	     8.485
  41.900         77.50	     9.644
  41.920         81.67	     9.899
  41.940         75.00	     9.487
  41.960         78.33	     9.695
  41.980         83.33	    10.000
  42.000         82.50	     9.950
  42.020         75.83	     9.539
  42.040         70.00	     9.165
  42.060         63.33	     8.718
  42.080         60.00	     8.485
  42.100         68.33	     9.055
  42.120         70.83	     9.220
  42.140         73.33	     9.381
  42.160         65.83	     8.888
  42.180         66.67	     8.944
  42.200         50.00	     7.746
  42.220         56.67	     8.246
  42.240         63.33	     8.718
  42.260         59.17	     8.426
  42.280         68.33	     9.055
  42.300         82.50	     9.950
  42.320         75.00	     9.487
  42.340         90.83	    10.440
  42.360         80.83	     9.849
  42.380        107.50	    11.358
  42.400        116.67	    11.832
  42.420        112.50	    11.619
  42.440        130.83	    12.530
  42.460        153.33	    13.565
  42.480        165.83	    14.107
  42.500        199.17	    15.460
  42.520        202.50	    15.588
  42.540        135.83	    12.767
  42.560        127.50	    12.369
  42.580        116.67	    11.832
  42.600        112.50	    11.619
  42.620        100.00	    10.954
  42.640         88.33	    10.296
  42.660         72.50	     9.327
  42.680         74.17	     9.434
  42.700         60.00	     8.485
  42.720         55.83	     8.185
  42.740         51.67	     7.874
  42.760         47.50	     7.550
  42.780         52.50	     7.937
  42.800         46.67	     7.483
  42.820         45.00	     7.348
  42.840         49.17	     7.681
  42.860         54.17	     8.062
  42.880         53.33	     8.000
  42.900         44.17	     7.280
  42.920         60.83	     8.544
  42.940         59.17	     8.426
  42.960         60.83	     8.544
  42.980         47.50	     7.550
  43.000         46.67	     7.483
  43.020         49.17	     7.681
  43.040         40.00	     6.928
  43.060         43.33	     7.211
  43.080         53.33	     8.000
  43.100         49.17	     7.681
  43.120         42.50	     7.141
  43.140         40.00	     6.928
  43.160         32.50	     6.245
  43.180         28.33	     5.831
  43.200         41.67	     7.071
  43.220         31.67	     6.164
  43.240         41.67	     7.071
  43.260         36.67	     6.633
  43.280         32.50	     6.245
  43.300         34.17	     6.403
  43.320         33.33	     6.325
  43.340         33.33	     6.325
  43.360         33.33	     6.325
  43.380         35.00	     6.481
  43.400         25.83	     5.568
  43.420         39.17	     6.856
  43.440         36.67	     6.633
  43.460         35.83	     6.557
  43.480         35.00	     6.481
  43.500         38.33	     6.782
  43.520         36.67	     6.633
  43.540         43.33	     7.211
  43.560         39.17	     6.856
  43.580         54.17	     8.062
  43.600         43.33	     7.211
  43.620         37.50	     6.708
  43.640         38.33	     6.782
  43.660         53.33	     8.000
  43.680         40.83	     7.000
  43.700         56.67	     8.246
  43.720         43.33	     7.211
  43.740         36.67	     6.633
  43.760         43.33	     7.211
  43.780         51.67	     7.874
  43.800         50.00	     7.746
  43.820         32.50	     6.245
  43.840         40.00	     6.928
  43.860         34.17	     6.403
  43.880         50.00	     7.746
  43.900         40.00	     6.928
  43.920         34.17	     6.403
  43.940         45.00	     7.348
  43.960         39.17	     6.856
  43.980         46.67	     7.483
  44.000         45.00	     7.348
  44.020         45.00	     7.348
  44.040         32.50	     6.245
  44.060         31.67	     6.164
  44.080         46.67	     7.483
  44.100         45.83	     7.416
  44.120         50.83	     7.810
  44.140         40.83	     7.000
  44.160         48.33	     7.616
  44.180         47.50	     7.550
  44.200         39.17	     6.856
  44.220         38.33	     6.782
  44.240         43.33	     7.211
  44.260         45.00	     7.348
  44.280         49.17	     7.681
  44.300         66.67	     8.944
  44.320         44.17	     7.280
  44.340         50.00	     7.746
  44.360         35.00	     6.481
  44.380         44.17	     7.280
  44.400         52.50	     7.937
  44.420         44.17	     7.280
  44.440         41.67	     7.071
  44.460         42.50	     7.141
  44.480         44.17	     7.280
  44.500         37.50	     6.708
  44.520         37.50	     6.708
  44.540         42.50	     7.141
  44.560         45.83	     7.416
  44.580         49.17	     7.681
  44.600         36.67	     6.633
  44.620         46.67	     7.483
  44.640         45.83	     7.416
  44.660         45.00	     7.348
  44.680         45.00	     7.348
  44.700         45.00	     7.348
  44.720         51.67	     7.874
  44.740         54.17	     8.062
  44.760         50.00	     7.746
  44.780         43.33	     7.211
  44.800         55.83	     8.185
  44.820         69.17	     9.110
  44.840         57.50	     8.307
  44.860         58.33	     8.367
  44.880         67.50	     9.000
  44.900         63.33	     8.718
  44.920         64.17	     8.775
  44.940         64.17	     8.775
  44.960         76.67	     9.592
  44.980         66.67	     8.944
  45.000         84.17	    10.050
  45.020         70.00	     9.165
  45.040         72.50	     9.327
  45.060         94.17	    10.630
  45.080         74.17	     9.434
  45.100         94.17	    10.630
  45.120         83.33	    10.000
  45.140         77.50	     9.644
  45.160        101.67	    11.045
  45.180         84.17	    10.050
  45.200         87.50	    10.247
  45.220         85.83	    10.149
  45.240         94.17	    10.630
  45.260         98.33	    10.863
  45.280         94.17	    10.630
  45.300        117.50	    11.874
  45.320         93.33	    10.583
  45.340        113.33	    11.662
  45.360        101.67	    11.045
  45.380        101.67	    11.045
  45.400        113.33	    11.662
  45.420        119.17	    11.958
  45.440        142.50	    13.077
  45.460        145.00	    13.191
  45.480        169.17	    14.248
  45.500        189.17	    15.067
  45.520        226.67	    16.492
  45.540        227.50	    16.523
  45.560        251.67	    17.378
  45.580        259.17	    17.635
  45.600        267.50	    17.916
  45.620        271.67	    18.055
  45.640        292.50	    18.735
  45.660        255.83	    17.521
  45.680        250.00	    17.321
  45.700        200.83	    15.524
  45.720        198.33	    15.427
  45.740        195.00	    15.297
  45.760        169.17	    14.248
  45.780        173.33	    14.422
  45.800        182.50	    14.799
  45.820        155.83	    13.675
  45.840        169.17	    14.248
  45.860        125.83	    12.288
  45.880        123.33	    12.166
  45.900         75.83	     9.539
  45.920         93.33	    10.583
  45.940         90.83	    10.440
  45.960         97.50	    10.817
  45.980         98.33	    10.863
  46.000         96.67	    10.770
  46.020         80.83	     9.849
  46.040         76.67	     9.592
  46.060         78.33	     9.695
  46.080         75.83	     9.539
  46.100         86.67	    10.198
  46.120         65.83	     8.888
  46.140         74.17	     9.434
  46.160         67.50	     9.000
  46.180         68.33	     9.055
  46.200         70.00	     9.165
  46.220         67.50	     9.000
  46.240         70.83	     9.220
  46.260         62.50	     8.660
  46.280         59.17	     8.426
  46.300         50.83	     7.810
  46.320         55.83	     8.185
  46.340         50.83	     7.810
  46.360         50.83	     7.810
  46.380         35.83	     6.557
  46.400         39.17	     6.856
  46.420         37.50	     6.708
  46.440         39.17	     6.856
  46.460         35.83	     6.557
  46.480         33.33	     6.325
  46.500         44.17	     7.280
  46.520         31.67	     6.164
  46.540         51.67	     7.874
  46.560         54.17	     8.062
  46.580         45.83	     7.416
  46.600         39.17	     6.856
  46.620         40.83	     7.000
  46.640         43.33	     7.211
  46.660         55.00	     8.124
  46.680         50.00	     7.746
  46.700         35.00	     6.481
  46.720         44.17	     7.280
  46.740         48.33	     7.616
  46.760         40.83	     7.000
  46.780         38.33	     6.782
  46.800         31.67	     6.164
  46.820         35.00	     6.481
  46.840         44.17	     7.280
  46.860         38.33	     6.782
  46.880         46.67	     7.483
  46.900         37.50	     6.708
  46.920         33.33	     6.325
  46.940         46.67	     7.483
  46.960         35.83	     6.557
  46.980         41.67	     7.071
  47.000         31.67	     6.164
  47.020         33.33	     6.325
  47.040         39.17	     6.856
  47.060         31.67	     6.164
  47.080         35.83	     6.557
  47.100         35.83	     6.557
  47.120         48.33	     7.616
  47.140         41.67	     7.071
  47.160         50.83	     7.810
  47.180         35.83	     6.557
  47.200         35.83	     6.557
  47.220         42.50	     7.141
  47.240         47.50	     7.550
  47.260         55.00	     8.124
  47.280         35.83	     6.557
  47.300         35.83	     6.557
  47.320         38.33	     6.782
  47.340         46.67	     7.483
  47.360         34.17	     6.403
  47.380         43.33	     7.211
  47.400         24.17	     5.385
  47.420         35.83	     6.557
  47.440         38.33	     6.782
  47.460         40.00	     6.928
  47.480         34.17	     6.403
  47.500         22.50	     5.196
  47.520         38.33	     6.782
  47.540         25.83	     5.568
  47.560         23.33	     5.292
  47.580         35.83	     6.557
  47.600         30.83	     6.083
  47.620         34.17	     6.403
  47.640         47.50	     7.550
  47.660         29.17	     5.916
  47.680         41.67	     7.071
  47.700         39.17	     6.856
  47.720         26.67	     5.657
  47.740         31.67	     6.164
  47.760         33.33	     6.325
  47.780         39.17	     6.856
  47.800         34.17	     6.403
  47.820         31.67	     6.164
  47.840         23.33	     5.292
  47.860         39.17	     6.856
  47.880         25.83	     5.568
  47.900         39.17	     6.856
  47.920         35.00	     6.481
  47.940         50.00	     7.746
  47.960         46.67	     7.483
  47.980         49.17	     7.681
  48.000         59.17	     8.426
  48.020         46.67	     7.483
  48.040         55.00	     8.124
  48.060         59.17	     8.426
  48.080         40.00	     6.928
  48.100         49.17	     7.681
  48.120         65.00	     8.832
  48.140         60.00	     8.485
  48.160         55.83	     8.185
  48.180         85.00	    10.100
  48.200         65.00	     8.832
  48.220         73.33	     9.381
  48.240         71.67	     9.274
  48.260         55.00	     8.124
  48.280         65.83	     8.888
  48.300         63.33	     8.718
  48.320         64.17	     8.775
  48.340         79.17	     9.747
  48.360         62.50	     8.660
  48.380         63.33	     8.718
  48.400         53.33	     8.000
  48.420         55.83	     8.185
  48.440         65.00	     8.832
  48.460         56.67	     8.246
  48.480         58.33	     8.367
  48.500         62.50	     8.660
  48.520         60.00	     8.485
  48.540         39.17	     6.856
  48.560         52.50	     7.937
  48.580         39.17	     6.856
  48.600         48.33	     7.616
  48.620         44.17	     7.280
  48.640         42.50	     7.141
  48.660         37.50	     6.708
  48.680         33.33	     6.325
  48.700         46.67	     7.483
  48.720         37.50	     6.708
  48.740         26.67	     5.657
  48.760         40.00	     6.928
  48.780         50.00	     7.746
  48.800         44.17	     7.280
  48.820         32.50	     6.245
  48.840         47.50	     7.550
  48.860         44.17	     7.280
  48.880         28.33	     5.831
  48.900         41.67	     7.071
  48.920         40.00	     6.928
  48.940         45.83	     7.416
  48.960         41.67	     7.071
  48.980         44.17	     7.280
  49.000         40.83	     7.000
  49.020         37.50	     6.708
  49.040         42.50	     7.141
  49.060         46.67	     7.483
  49.080         32.50	     6.245
  49.100         33.33	     6.325
  49.120         30.83	     6.083
  49.140         37.50	     6.708
  49.160         42.50	     7.141
  49.180         42.50	     7.141
  49.200         45.00	     7.348
  49.220         52.50	     7.937
  49.240         50.83	     7.810
  49.260         59.17	     8.426
  49.280         49.17	     7.681
  49.300         50.00	     7.746
  49.320         50.00	     7.746
  49.340         50.83	     7.810
  49.360         43.33	     7.211
  49.380         44.17	     7.280
  49.400         40.00	     6.928
  49.420         41.67	     7.071
  49.440         60.00	     8.485
  49.460         41.67	     7.071
  49.480         50.83	     7.810
  49.500         40.83	     7.000
  49.520         43.33	     7.211
  49.540         57.50	     8.307
  49.560         38.33	     6.782
  49.580         41.67	     7.071
  49.600         36.67	     6.633
  49.620         40.83	     7.000
  49.640         46.67	     7.483
  49.660         44.17	     7.280
  49.680         50.83	     7.810
  49.700         39.17	     6.856
  49.720         49.17	     7.681
  49.740         46.67	     7.483
  49.760         51.67	     7.874
  49.780         65.00	     8.832
  49.800         65.00	     8.832
  49.820         55.83	     8.185
  49.840         69.17	     9.110
  49.860         70.00	     9.165
  49.880         55.83	     8.185
  49.900         75.00	     9.487
  49.920         66.67	     8.944
  49.940         70.00	     9.165
  49.960         79.17	     9.747
  49.980         90.83	    10.440
  50.000         75.00	     9.487
  50.020         90.00	    10.392
  50.040         83.33	    10.000
  50.060         79.17	     9.747
  50.080         91.67	    10.488
  50.100        117.50	    11.874
  50.120        141.67	    13.038
  50.140        205.00	    15.684
  50.160        265.00	    17.833
  50.180        300.00	    18.974
  50.200        254.17	    17.464
  50.220        165.00	    14.071
  50.240        127.50	    12.369
  50.260        129.17	    12.450
  50.280        168.33	    14.213
  50.300        156.67	    13.711
  50.320        152.50	    13.528
  50.340        141.67	    13.038
  50.360         75.83	     9.539
  50.380         75.83	     9.539
  50.400         59.17	     8.426
  50.420         44.17	     7.280
  50.440         52.50	     7.937
  50.460         51.67	     7.874
  50.480         42.50	     7.141
  50.500         41.67	     7.071
  50.520         56.67	     8.246
  50.540         49.17	     7.681
  50.560         51.67	     7.874
  50.580        110.83	    11.533
  50.600        148.33	    13.342
  50.620        165.00	    14.071
  50.640        150.00	    13.416
  50.660        122.50	    12.124
  50.680        125.83	    12.288
  50.700         88.33	    10.296
  50.720        109.17	    11.446
  50.740        130.83	    12.530
  50.760        110.00	    11.489
  50.780        121.67	    12.083
  50.800        105.83	    11.269
  50.820         75.83	     9.539
  50.840         74.17	     9.434
  50.860         57.50	     8.307
  50.880         51.67	     7.874
  50.900         40.00	     6.928
  50.920         47.50	     7.550
  50.940         45.83	     7.416
  50.960         32.50	     6.245
  50.980         34.17	     6.403
  51.000         37.50	     6.708
  51.020         41.67	     7.071
  51.040         40.83	     7.000
  51.060         37.50	     6.708
  51.080         38.33	     6.782
  51.100         35.00	     6.481
  51.120         30.83	     6.083
  51.140         40.83	     7.000
  51.160         40.00	     6.928
  51.180         68.33	     9.055
  51.200         55.00	     8.124
  51.220         55.83	     8.185
  51.240         46.67	     7.483
  51.260         47.50	     7.550
  51.280         55.00	     8.124
  51.300         63.33	     8.718
  51.320         61.67	     8.602
  51.340         68.33	     9.055
  51.360         60.83	     8.544
  51.380         42.50	     7.141
  51.400         36.67	     6.633
  51.420         53.33	     8.000
  51.440         34.17	     6.403
  51.460         41.67	     7.071
  51.480         34.17	     6.403
  51.500         35.83	     6.557
  51.520         36.67	     6.633
  51.540         30.00	     6.000
  51.560         31.67	     6.164
  51.580         26.67	     5.657
  51.600         30.00	     6.000
  51.620         37.50	     6.708
  51.640         39.17	     6.856
  51.660         29.17	     5.916
  51.680         29.17	     5.916
  51.700         40.00	     6.928
  51.720         28.33	     5.831
  51.740         34.17	     6.403
  51.760         25.83	     5.568
  51.780         40.83	     7.000
  51.800         29.17	     5.916
  51.820         30.00	     6.000
  51.840         29.17	     5.916
  51.860         35.00	     6.481
  51.880         25.83	     5.568
  51.900         23.33	     5.292
  51.920         22.50	     5.196
  51.940         30.00	     6.000
  51.960         35.00	     6.481
  51.980         38.33	     6.782
  52.000         29.17	     5.916
  52.020         29.17	     5.916
  52.040         31.67	     6.164
  52.060         32.50	     6.245
  52.080         29.17	     5.916
  52.100         32.50	     6.245
  52.120         32.50	     6.245
  52.140         38.33	     6.782
  52.160         40.00	     6.928
  52.180         53.33	     8.000
  52.200         41.67	     7.071
  52.220         45.83	     7.416
  52.240         54.17	     8.062
  52.260         48.33	     7.616
  52.280         40.83	     7.000
  52.300         51.67	     7.874
  52.320         60.00	     8.485
  52.340         49.17	     7.681
  52.360         48.33	     7.616
  52.380         47.50	     7.550
  52.400         45.00	     7.348
  52.420         46.67	     7.483
  52.440         48.33	     7.616
  52.460         35.83	     6.557
  52.480         53.33	     8.000
  52.500         46.67	     7.483
  52.520         48.33	     7.616
  52.540         55.00	     8.124
  52.560         51.67	     7.874
  52.580         55.83	     8.185
  52.600         36.67	     6.633
  52.620         34.17	     6.403
  52.640         50.83	     7.810
  52.660         38.33	     6.782
  52.680         47.50	     7.550
  52.700         51.67	     7.874
  52.720         42.50	     7.141
  52.740         51.67	     7.874
  52.760         50.00	     7.746
  52.780         57.50	     8.307
  52.800         57.50	     8.307
  52.820         40.00	     6.928
  52.840         54.17	     8.062
  52.860         51.67	     7.874
  52.880         55.83	     8.185
  52.900         41.67	     7.071
  52.920         50.83	     7.810
  52.940         56.67	     8.246
  52.960         65.83	     8.888
  52.980         66.67	     8.944
  53.000         79.17	     9.747
  53.020         63.33	     8.718
  53.040         57.50	     8.307
  53.060         60.00	     8.485
  53.080         60.00	     8.485
  53.100         62.50	     8.660
  53.120         55.00	     8.124
  53.140         58.33	     8.367
  53.160         66.67	     8.944
  53.180         62.50	     8.660
  53.200         79.17	     9.747
  53.220         74.17	     9.434
  53.240         56.67	     8.246
  53.260         62.50	     8.660
  53.280         57.50	     8.307
  53.300         74.17	     9.434
  53.320         55.83	     8.185
  53.340         57.50	     8.307
  53.360         68.33	     9.055
  53.380         58.33	     8.367
  53.400         56.67	     8.246
  53.420         41.67	     7.071
  53.440         49.17	     7.681
  53.460         40.83	     7.000
  53.480         50.83	     7.810
  53.500         53.33	     8.000
  53.520         50.83	     7.810
  53.540         48.33	     7.616
  53.560         44.17	     7.280
  53.580         44.17	     7.280
  53.600         44.17	     7.280
  53.620         49.17	     7.681
  53.640         47.50	     7.550
  53.660         42.50	     7.141
  53.680         43.33	     7.211
  53.700         43.33	     7.211
  53.720         38.33	     6.782
  53.740         55.00	     8.124
  53.760         40.00	     6.928
  53.780         26.67	     5.657
  53.800         41.67	     7.071
  53.820         50.83	     7.810
  53.840         44.17	     7.280
  53.860         35.83	     6.557
  53.880         41.67	     7.071
  53.900         28.33	     5.831
  53.920         35.00	     6.481
  53.940         35.83	     6.557
  53.960         40.83	     7.000
  53.980         36.67	     6.633
  54.000         40.00	     6.928
  54.020         38.33	     6.782
  54.040         45.00	     7.348
  54.060         37.50	     6.708
  54.080         39.17	     6.856
  54.100         40.00	     6.928
  54.120         39.17	     6.856
  54.140         38.33	     6.782
  54.160         42.50	     7.141
  54.180         33.33	     6.325
  54.200         35.83	     6.557
  54.220         40.00	     6.928
  54.240         35.00	     6.481
  54.260         38.33	     6.782
  54.280         44.17	     7.280
  54.300         42.50	     7.141
  54.320         35.00	     6.481
  54.340         47.50	     7.550
  54.360         37.50	     6.708
  54.380         45.83	     7.416
  54.400         53.33	     8.000
  54.420         40.83	     7.000
  54.440         49.17	     7.681
  54.460         50.00	     7.746
  54.480         38.33	     6.782
  54.500         60.00	     8.485
  54.520         54.17	     8.062
  54.540         46.67	     7.483
  54.560         53.33	     8.000
  54.580         43.33	     7.211
  54.600         55.00	     8.124
  54.620         45.00	     7.348
  54.640         53.33	     8.000
  54.660         55.00	     8.124
  54.680         67.50	     9.000
  54.700         40.00	     6.928
  54.720         37.50	     6.708
  54.740         61.67	     8.602
  54.760         62.50	     8.660
  54.780         57.50	     8.307
  54.800         55.00	     8.124
  54.820         55.83	     8.185
  54.840         60.00	     8.485
  54.860         81.67	     9.899
  54.880        108.33	    11.402
  54.900         94.17	    10.630
  54.920        125.83	    12.288
  54.940        101.67	    11.045
  54.960         76.67	     9.592
  54.980         65.00	     8.832
  55.000         80.83	     9.849
  55.020         60.83	     8.544
  55.040         80.00	     9.798
  55.060         98.33	    10.863
  55.080         93.33	    10.583
  55.100         87.50	    10.247
  55.120         67.50	     9.000
  55.140         63.33	     8.718
  55.160         68.33	     9.055
  55.180         64.17	     8.775
  55.200         60.00	     8.485
  55.220         64.17	     8.775
  55.240         73.33	     9.381
  55.260         62.50	     8.660
  55.280         79.17	     9.747
  55.300         79.17	     9.747
  55.320         73.33	     9.381
  55.340        101.67	    11.045
  55.360        102.50	    11.091
  55.380         90.00	    10.392
  55.400         85.83	    10.149
  55.420         65.83	     8.888
  55.440         85.83	    10.149
  55.460         78.33	     9.695
  55.480         70.83	     9.220
  55.500         65.83	     8.888
  55.520         63.33	     8.718
  55.540         65.00	     8.832
  55.560         56.67	     8.246
  55.580         68.33	     9.055
  55.600         55.00	     8.124
  55.620         55.83	     8.185
  55.640         68.33	     9.055
  55.660         85.00	    10.100
  55.680         74.17	     9.434
  55.700         87.50	    10.247
  55.720         90.83	    10.440
  55.740         85.00	    10.100
  55.760         81.67	     9.899
  55.780        103.33	    11.136
  55.800         91.67	    10.488
  55.820        124.17	    12.207
  55.840        110.83	    11.533
  55.860        140.83	    13.000
  55.880        123.33	    12.166
  55.900        135.83	    12.767
  55.920        116.67	    11.832
  55.940        104.17	    11.180
  55.960        107.50	    11.358
  55.980         88.33	    10.296
  56.000         95.00	    10.677
  56.020         85.83	    10.149
  56.040         79.17	     9.747
  56.060         89.17	    10.344
  56.080         67.50	     9.000
  56.100         60.83	     8.544
  56.120         46.67	     7.483
  56.140         60.00	     8.485
  56.160         66.67	     8.944
  56.180         47.50	     7.550
  56.200         52.50	     7.937
  56.220         52.50	     7.937
  56.240         45.83	     7.416
  56.260         52.50	     7.937
  56.280         52.50	     7.937
  56.300         48.33	     7.616
  56.320         36.67	     6.633
  56.340         50.00	     7.746
  56.360         49.17	     7.681
  56.380         40.83	     7.000
  56.400         46.67	     7.483
  56.420         45.83	     7.416
  56.440         39.17	     6.856
  56.460         35.83	     6.557
  56.480         40.00	     6.928
  56.500         39.17	     6.856
  56.520         51.67	     7.874
  56.540         43.33	     7.211
  56.560         40.83	     7.000
  56.580         23.33	     5.292
  56.600         35.83	     6.557
  56.620         41.67	     7.071
  56.640         43.33	     7.211
  56.660         38.33	     6.782
  56.680         35.00	     6.481
  56.700         33.33	     6.325
  56.720         40.00	     6.928
  56.740         38.33	     6.782
  56.760         27.50	     5.745
  56.780         48.33	     7.616
  56.800         53.33	     8.000
  56.820         41.67	     7.071
  56.840         34.17	     6.403
  56.860         45.83	     7.416
  56.880         40.00	     6.928
  56.900         36.67	     6.633
  56.920         35.00	     6.481
  56.940         41.67	     7.071
  56.960         38.33	     6.782
  56.980         37.50	     6.708
  57.000         42.50	     7.141
  57.020         53.33	     8.000
  57.040         40.83	     7.000
  57.060         41.67	     7.071
  57.080         41.67	     7.071
  57.100         38.33	     6.782
  57.120         50.83	     7.810
  57.140         50.00	     7.746
  57.160         39.17	     6.856
  57.180         41.67	     7.071
  57.200         35.83	     6.557
  57.220         50.83	     7.810
  57.240         55.00	     8.124
  57.260         37.50	     6.708
  57.280         46.67	     7.483
  57.300         43.33	     7.211
  57.320         41.67	     7.071
  57.340         39.17	     6.856
  57.360         41.67	     7.071
  57.380         41.67	     7.071
  57.400         35.00	     6.481
  57.420         51.67	     7.874
  57.440         40.83	     7.000
  57.460         32.50	     6.245
  57.480         45.00	     7.348
  57.500         40.83	     7.000
  57.520         30.83	     6.083
  57.540         40.00	     6.928
  57.560         48.33	     7.616
  57.580         42.50	     7.141
  57.600         50.00	     7.746
  57.620         33.33	     6.325
  57.640         44.17	     7.280
  57.660         39.17	     6.856
  57.680         45.00	     7.348
  57.700         42.50	     7.141
  57.720         38.33	     6.782
  57.740         34.17	     6.403
  57.760         41.67	     7.071
  57.780         41.67	     7.071
  57.800         33.33	     6.325
  57.820         47.50	     7.550
  57.840         37.50	     6.708
  57.860         30.83	     6.083
  57.880         34.17	     6.403
  57.900         35.00	     6.481
  57.920         35.83	     6.557
  57.940         23.33	     5.292
  57.960         41.67	     7.071
  57.980         52.50	     7.937
  58.000         26.67	     5.657
  58.020         28.33	     5.831
  58.040         36.67	     6.633
  58.060         36.67	     6.633
  58.080         44.17	     7.280
  58.100         49.17	     7.681
  58.120         40.00	     6.928
  58.140         44.17	     7.280
  58.160         43.33	     7.211
  58.180         38.33	     6.782
  58.200         35.83	     6.557
  58.220         40.00	     6.928
  58.240         44.17	     7.280
  58.260         42.50	     7.141
  58.280         48.33	     7.616
  58.300         45.00	     7.348
  58.320         40.00	     6.928
  58.340         40.83	     7.000
  58.360         50.00	     7.746
  58.380         49.17	     7.681
  58.400         46.67	     7.483
  58.420         45.83	     7.416
  58.440         41.67	     7.071
  58.460         44.17	     7.280
  58.480         45.83	     7.416
  58.500         42.50	     7.141
  58.520         42.50	     7.141
  58.540         45.83	     7.416
  58.560         55.00	     8.124
  58.580         47.50	     7.550
  58.600         44.17	     7.280
  58.620         50.00	     7.746
  58.640         42.50	     7.141
  58.660         65.00	     8.832
  58.680         63.33	     8.718
  58.700         61.67	     8.602
  58.720         54.17	     8.062
  58.740         54.17	     8.062
  58.760         50.83	     7.810
  58.780         71.67	     9.274
  58.800         68.33	     9.055
  58.820         68.33	     9.055
  58.840         69.17	     9.110
  58.860         63.33	     8.718
  58.880         69.17	     9.110
  58.900         59.17	     8.426
  58.920         69.17	     9.110
  58.940         75.83	     9.539
  58.960         68.33	     9.055
  58.980         55.00	     8.124
  59.000         65.83	     8.888
  59.020         65.00	     8.832
  59.040         53.33	     8.000
  59.060         75.00	     9.487
  59.080         49.17	     7.681
  59.100         72.50	     9.327
  59.120         52.50	     7.937
  59.140         53.33	     8.000
  59.160         59.17	     8.426
  59.180         69.17	     9.110
  59.200         77.50	     9.644
  59.220         50.83	     7.810
  59.240         52.50	     7.937
  59.260         65.00	     8.832
  59.280         70.00	     9.165
  59.300         66.67	     8.944
  59.320         53.33	     8.000
  59.340         61.67	     8.602
  59.360         59.17	     8.426
  59.380         65.00	     8.832
  59.400         73.33	     9.381
  59.420         57.50	     8.307
  59.440         54.17	     8.062
  59.460         54.17	     8.062
  59.480         49.17	     7.681
  59.500         43.33	     7.211
  59.520         51.67	     7.874
  59.540         45.83	     7.416
  59.560         58.33	     8.367
  59.580         58.33	     8.367
  59.600         44.17	     7.280
  59.620         47.50	     7.550
  59.640         55.83	     8.185
  59.660         49.17	     7.681
  59.680         50.00	     7.746
  59.700         55.83	     8.185
  59.720         55.83	     8.185
  59.740         53.33	     8.000
  59.760         61.67	     8.602
  59.780         51.67	     7.874
  59.800         47.50	     7.550
  59.820         61.67	     8.602
  59.840         65.83	     8.888
  59.860         70.83	     9.220
  59.880         60.83	     8.544
  59.900         76.67	     9.592
  59.920         92.50	    10.536
  59.940        130.00	    12.490
  59.960        164.17	    14.036
  59.980        197.50	    15.395
  60.000        200.83	    15.524
  60.020        175.00	    14.491
  60.040        142.50	    13.077
  60.060        130.00	    12.490
  60.080        105.83	    11.269
  60.100        121.67	    12.083
  60.120        102.50	    11.091
  60.140        133.33	    12.649
  60.160        137.50	    12.845
  60.180        145.83	    13.229
  60.200        101.67	    11.045
  60.220         91.67	    10.488
  60.240         70.83	     9.220
  60.260         85.00	    10.100
  60.280         60.00	     8.485
  60.300         69.17	     9.110
  60.320         48.33	     7.616
  60.340         77.50	     9.644
  60.360         50.83	     7.810
  60.380         57.50	     8.307
  60.400         48.33	     7.616
  60.420         56.67	     8.246
  60.440         57.50	     8.307
  60.460         60.00	     8.485
  60.480         49.17	     7.681
  60.500         56.67	     8.246
  60.520         50.00	     7.746
  60.540         64.17	     8.775
  60.560         49.17	     7.681
  60.580         44.17	     7.280
  60.600         50.83	     7.810
  60.620         55.83	     8.185
  60.640         45.83	     7.416
  60.660         54.17	     8.062
  60.680         57.50	     8.307
  60.700         71.67	     9.274
  60.720         61.67	     8.602
  60.740         65.00	     8.832
  60.760         80.00	     9.798
  60.780         70.00	     9.165
  60.800         80.83	     9.849
  60.820         78.33	     9.695
  60.840         95.00	    10.677
  60.860         80.83	     9.849
  60.880         89.17	    10.344
  60.900        104.17	    11.180
  60.920         91.67	    10.488
  60.940        110.00	    11.489
  60.960        108.33	    11.402
  60.980         76.67	     9.592
  61.000         70.00	     9.165
  61.020         66.67	     8.944
  61.040         83.33	    10.000
  61.060         62.50	     8.660
  61.080         84.17	    10.050
  61.100         69.17	     9.110
  61.120         77.50	     9.644
  61.140         65.83	     8.888
  61.160         64.17	     8.775
  61.180         62.50	     8.660
  61.200         64.17	     8.775
  61.220         64.17	     8.775
  61.240         65.83	     8.888
  61.260         63.33	     8.718
  61.280         55.83	     8.185
  61.300         53.33	     8.000
  61.320         60.83	     8.544
  61.340         69.17	     9.110
  61.360         67.50	     9.000
  61.380         69.17	     9.110
  61.400         69.17	     9.110
  61.420         60.83	     8.544
  61.440         60.83	     8.544
  61.460         75.83	     9.539
  61.480         85.00	    10.100
  61.500         86.67	    10.198
  61.520         88.33	    10.296
  61.540        105.83	    11.269
  61.560        104.17	    11.180
  61.580         81.67	     9.899
  61.600         90.83	    10.440
  61.620         80.83	     9.849
  61.640         88.33	    10.296
  61.660        105.00	    11.225
  61.680         90.83	    10.440
  61.700         77.50	     9.644
  61.720         75.00	     9.487
  61.740         83.33	    10.000
  61.760         79.17	     9.747
  61.780         75.00	     9.487
  61.800         85.00	    10.100
  61.820         76.67	     9.592
  61.840         70.83	     9.220
  61.860         58.33	     8.367
  61.880         59.17	     8.426
  61.900         55.00	     8.124
  61.920         75.83	     9.539
  61.940         62.50	     8.660
  61.960         41.67	     7.071
  61.980         50.83	     7.810
  62.000         49.17	     7.681
  62.020         44.17	     7.280
  62.040         47.50	     7.550
  62.060         55.00	     8.124
  62.080         58.33	     8.367
  62.100         59.17	     8.426
  62.120         42.50	     7.141
  62.140         39.17	     6.856
  62.160         38.33	     6.782
  62.180         40.83	     7.000
  62.200         53.33	     8.000
  62.220         45.83	     7.416
  62.240         58.33	     8.367
  62.260         48.33	     7.616
  62.280         43.33	     7.211
  62.300         37.50	     6.708
  62.320         42.50	     7.141
  62.340         44.17	     7.280
  62.360         34.17	     6.403
  62.380         50.00	     7.746
  62.400         35.83	     6.557
  62.420         40.00	     6.928
  62.440         39.17	     6.856
  62.460         35.00	     6.481
  62.480         45.83	     7.416
  62.500         44.17	     7.280
  62.520         34.17	     6.403
  62.540         35.00	     6.481
  62.560         35.00	     6.481
  62.580         47.50	     7.550
  62.600         45.83	     7.416
  62.620         45.00	     7.348
  62.640         35.00	     6.481
  62.660         40.83	     7.000
  62.680         45.00	     7.348
  62.700         40.00	     6.928
  62.720         43.33	     7.211
  62.740         27.50	     5.745
  62.760         44.17	     7.280
  62.780         45.83	     7.416
  62.800         38.33	     6.782
  62.820         30.00	     6.000
  62.840         35.00	     6.481
  62.860         45.83	     7.416
  62.880         43.33	     7.211
  62.900         32.50	     6.245
  62.920         47.50	     7.550
  62.940         36.67	     6.633
  62.960         60.83	     8.544
  62.980         39.17	     6.856
  63.000         46.67	     7.483
  63.020         47.50	     7.550
  63.040         36.67	     6.633
  63.060         47.50	     7.550
  63.080         40.83	     7.000
  63.100         41.67	     7.071
  63.120         36.67	     6.633
  63.140         39.17	     6.856
  63.160         50.00	     7.746
  63.180         48.33	     7.616
  63.200         35.83	     6.557
  63.220         50.83	     7.810
  63.240         36.67	     6.633
  63.260         35.00	     6.481
  63.280         40.83	     7.000
  63.300         30.83	     6.083
  63.320         45.00	     7.348
  63.340         46.67	     7.483
  63.360         31.67	     6.164
  63.380         33.33	     6.325
  63.400         36.67	     6.633
  63.420         41.67	     7.071
  63.440         41.67	     7.071
  63.460         48.33	     7.616
  63.480         44.17	     7.280
  63.500         37.50	     6.708
  63.520         55.00	     8.124
  63.540         39.17	     6.856
  63.560         51.67	     7.874
  63.580         33.33	     6.325
  63.600         46.67	     7.483
  63.620         34.17	     6.403
  63.640         50.83	     7.810
  63.660         40.00	     6.928
  63.680         45.00	     7.348
  63.700         41.67	     7.071
  63.720         52.50	     7.937
  63.740         50.83	     7.810
  63.760         44.17	     7.280
  63.780         54.17	     8.062
  63.800         70.00	     9.165
  63.820         41.67	     7.071
  63.840         55.83	     8.185
  63.860         55.00	     8.124
  63.880         54.17	     8.062
  63.900         55.83	     8.185
  63.920         54.17	     8.062
  63.940         51.67	     7.874
  63.960         61.67	     8.602
  63.980         50.83	     7.810
  64.000         54.17	     8.062
  64.020         67.50	     9.000
  64.040         67.50	     9.000
  64.060         77.50	     9.644
  64.080         93.33	    10.583
  64.100         64.17	     8.775
  64.120         68.33	     9.055
  64.140         65.83	     8.888
  64.160         79.17	     9.747
  64.180         70.00	     9.165
  64.200         70.83	     9.220
  64.220         71.67	     9.274
  64.240         66.67	     8.944
  64.260         56.67	     8.246
  64.280         50.00	     7.746
  64.300         58.33	     8.367
  64.320         63.33	     8.718
  64.340         50.83	     7.810
  64.360         65.00	     8.832
  64.380         67.50	     9.000
  64.400         63.33	     8.718
  64.420         78.33	     9.695
  64.440         69.17	     9.110
  64.460         57.50	     8.307
  64.480         49.17	     7.681
  64.500         40.00	     6.928
  64.520         44.17	     7.280
  64.540         48.33	     7.616
  64.560         45.83	     7.416
  64.580         73.33	     9.381
  64.600         73.33	     9.381
  64.620         51.67	     7.874
  64.640         59.17	     8.426
  64.660         54.17	     8.062
  64.680         56.67	     8.246
  64.700         40.83	     7.000
  64.720         53.33	     8.000
  64.740         52.50	     7.937
  64.760         43.33	     7.211
  64.780         45.83	     7.416
  64.800         46.67	     7.483
  64.820         51.67	     7.874
  64.840         51.67	     7.874
  64.860         50.83	     7.810
  64.880         50.00	     7.746
  64.900         47.50	     7.550
  64.920         50.83	     7.810
  64.940         48.33	     7.616
  64.960         57.50	     8.307
  64.980         57.50	     8.307
  65.000         50.00	     7.746
