
Filename:
	C:\Program Files\Thermo Electron\WinXRD\Datafiles\F_HERMAN\GEO\GG_4_SFT.raw

File Created:
	October 12, 2020 - 03:42 PM

Specimen Id:
	GG4 SFT

Specimen Name:
	

Specimen Description:
	

Comment:
Scan Type: 2Theta Scan
Start Angle: 3 deg.
Stop Angle: 65 deg.
Num Points: 3101
Step Size: 0.02 deg.
Scan Rate: 1.000000
Scan Mode: Continuous
Wavelength: 1.540562
\Kalpha1: 1.540562	\Kalpha2: 1.544390	\Kbeta: 1.392218

Optics:
		Detector:
			 Type: Fixed Slits
		Tube: 
			 Type: Fixed Slits


Datas:
 Pos [deg]       Rate [CPS]      ESD [-]

Range 1 ---> Iteration 1
   3.000        415.83	    22.338
   3.020        422.50	    22.517
   3.040        405.00	    22.045
   3.060        417.50	    22.383
   3.080        401.67	    21.954
   3.100        355.83	    20.664
   3.120        370.00	    21.071
   3.140        406.67	    22.091
   3.160        390.83	    21.656
   3.180        379.17	    21.331
   3.200        367.50	    21.000
   3.220        371.67	    21.119
   3.240        390.00	    21.633
   3.260        360.83	    20.809
   3.280        376.67	    21.260
   3.300        335.83	    20.075
   3.320        355.00	    20.640
   3.340        374.17	    21.190
   3.360        355.00	    20.640
   3.380        332.50	    19.975
   3.400        375.83	    21.237
   3.420        335.00	    20.050
   3.440        312.50	    19.365
   3.460        348.33	    20.445
   3.480        370.00	    21.071
   3.500        356.67	    20.688
   3.520        341.67	    20.248
   3.540        340.00	    20.199
   3.560        305.83	    19.157
   3.580        313.33	    19.391
   3.600        350.83	    20.518
   3.620        337.50	    20.125
   3.640        312.50	    19.365
   3.660        321.67	    19.647
   3.680        355.83	    20.664
   3.700        305.83	    19.157
   3.720        299.17	    18.947
   3.740        305.00	    19.131
   3.760        331.67	    19.950
   3.780        316.67	    19.494
   3.800        293.33	    18.762
   3.820        319.17	    19.570
   3.840        325.00	    19.748
   3.860        331.67	    19.950
   3.880        298.33	    18.921
   3.900        326.67	    19.799
   3.920        310.83	    19.313
   3.940        285.83	    18.520
   3.960        280.00	    18.330
   3.980        315.83	    19.468
   4.000        270.00	    18.000
   4.020        288.33	    18.601
   4.040        317.50	    19.519
   4.060        299.17	    18.947
   4.080        275.83	    18.193
   4.100        304.17	    19.105
   4.120        300.83	    19.000
   4.140        307.50	    19.209
   4.160        304.17	    19.105
   4.180        240.00	    16.971
   4.200        260.83	    17.692
   4.220        269.17	    17.972
   4.240        266.67	    17.889
   4.260        260.00	    17.664
   4.280        260.83	    17.692
   4.300        277.50	    18.248
   4.320        265.00	    17.833
   4.340        285.00	    18.493
   4.360        232.50	    16.703
   4.380        247.50	    17.234
   4.400        271.67	    18.055
   4.420        260.83	    17.692
   4.440        237.50	    16.882
   4.460        252.50	    17.407
   4.480        232.50	    16.703
   4.500        252.50	    17.407
   4.520        224.17	    16.401
   4.540        251.67	    17.378
   4.560        277.50	    18.248
   4.580        230.00	    16.613
   4.600        259.17	    17.635
   4.620        263.33	    17.776
   4.640        259.17	    17.635
   4.660        254.17	    17.464
   4.680        245.00	    17.146
   4.700        245.83	    17.176
   4.720        220.00	    16.248
   4.740        231.67	    16.673
   4.760        226.67	    16.492
   4.780        238.33	    16.912
   4.800        240.83	    17.000
   4.820        233.33	    16.733
   4.840        221.67	    16.310
   4.860        250.00	    17.321
   4.880        221.67	    16.310
   4.900        245.00	    17.146
   4.920        234.17	    16.763
   4.940        236.67	    16.852
   4.960        220.00	    16.248
   4.980        228.33	    16.553
   5.000        223.33	    16.371
   5.020        220.00	    16.248
   5.040        225.00	    16.432
   5.060        209.17	    15.843
   5.080        255.83	    17.521
   5.100        201.67	    15.556
   5.120        230.00	    16.613
   5.140        226.67	    16.492
   5.160        217.50	    16.155
   5.180        210.83	    15.906
   5.200        191.67	    15.166
   5.220        209.17	    15.843
   5.240        200.83	    15.524
   5.260        207.50	    15.780
   5.280        200.83	    15.524
   5.300        213.33	    16.000
   5.320        210.83	    15.906
   5.340        192.50	    15.199
   5.360        206.67	    15.748
   5.380        185.83	    14.933
   5.400        225.83	    16.462
   5.420        208.33	    15.811
   5.440        205.00	    15.684
   5.460        191.67	    15.166
   5.480        205.00	    15.684
   5.500        214.17	    16.031
   5.520        173.33	    14.422
   5.540        171.67	    14.353
   5.560        215.83	    16.093
   5.580        191.67	    15.166
   5.600        184.17	    14.866
   5.620        205.83	    15.716
   5.640        205.00	    15.684
   5.660        210.00	    15.875
   5.680        177.50	    14.595
   5.700        185.00	    14.900
   5.720        189.17	    15.067
   5.740        200.83	    15.524
   5.760        185.83	    14.933
   5.780        207.50	    15.780
   5.800        184.17	    14.866
   5.820        182.50	    14.799
   5.840        191.67	    15.166
   5.860        201.67	    15.556
   5.880        202.50	    15.588
   5.900        226.67	    16.492
   5.920        201.67	    15.556
   5.940        228.33	    16.553
   5.960        215.83	    16.093
   5.980        237.50	    16.882
   6.000        201.67	    15.556
   6.020        210.83	    15.906
   6.040        234.17	    16.763
   6.060        209.17	    15.843
   6.080        225.83	    16.462
   6.100        219.17	    16.217
   6.120        229.17	    16.583
   6.140        251.67	    17.378
   6.160        290.00	    18.655
   6.180        295.00	    18.815
   6.200        306.67	    19.183
   6.220        319.17	    19.570
   6.240        287.50	    18.574
   6.260        265.00	    17.833
   6.280        210.83	    15.906
   6.300        212.50	    15.969
   6.320        175.83	    14.526
   6.340        212.50	    15.969
   6.360        185.00	    14.900
   6.380        197.50	    15.395
   6.400        162.50	    13.964
   6.420        190.83	    15.133
   6.440        159.17	    13.820
   6.460        185.83	    14.933
   6.480        170.83	    14.318
   6.500        189.17	    15.067
   6.520        166.67	    14.142
   6.540        183.33	    14.832
   6.560        173.33	    14.422
   6.580        161.67	    13.928
   6.600        195.83	    15.330
   6.620        169.17	    14.248
   6.640        172.50	    14.387
   6.660        144.17	    13.153
   6.680        170.00	    14.283
   6.700        179.17	    14.663
   6.720        164.17	    14.036
   6.740        165.83	    14.107
   6.760        158.33	    13.784
   6.780        174.17	    14.457
   6.800        164.17	    14.036
   6.820        176.67	    14.560
   6.840        203.33	    15.620
   6.860        145.00	    13.191
   6.880        190.83	    15.133
   6.900        172.50	    14.387
   6.920        171.67	    14.353
   6.940        164.17	    14.036
   6.960        165.83	    14.107
   6.980        165.83	    14.107
   7.000        145.83	    13.229
   7.020        201.67	    15.556
   7.040        139.17	    12.923
   7.060        156.67	    13.711
   7.080        152.50	    13.528
   7.100        174.17	    14.457
   7.120        159.17	    13.820
   7.140        161.67	    13.928
   7.160        151.67	    13.491
   7.180        149.17	    13.379
   7.200        137.50	    12.845
   7.220        154.17	    13.601
   7.240        164.17	    14.036
   7.260        166.67	    14.142
   7.280        144.17	    13.153
   7.300        141.67	    13.038
   7.320        150.83	    13.454
   7.340        144.17	    13.153
   7.360        141.67	    13.038
   7.380        172.50	    14.387
   7.400        140.83	    13.000
   7.420        144.17	    13.153
   7.440        158.33	    13.784
   7.460        152.50	    13.528
   7.480        141.67	    13.038
   7.500        135.83	    12.767
   7.520        144.17	    13.153
   7.540        131.67	    12.570
   7.560        142.50	    13.077
   7.580        135.83	    12.767
   7.600        135.83	    12.767
   7.620        139.17	    12.923
   7.640        148.33	    13.342
   7.660        145.00	    13.191
   7.680        136.67	    12.806
   7.700        128.33	    12.410
   7.720        119.17	    11.958
   7.740        146.67	    13.266
   7.760        140.83	    13.000
   7.780        129.17	    12.450
   7.800        156.67	    13.711
   7.820        136.67	    12.806
   7.840        123.33	    12.166
   7.860        141.67	    13.038
   7.880        139.17	    12.923
   7.900        141.67	    13.038
   7.920        134.17	    12.689
   7.940        139.17	    12.923
   7.960        137.50	    12.845
   7.980        137.50	    12.845
   8.000        145.00	    13.191
   8.020        126.67	    12.329
   8.040        133.33	    12.649
   8.060        138.33	    12.884
   8.080        136.67	    12.806
   8.100        145.83	    13.229
   8.120        136.67	    12.806
   8.140        120.83	    12.042
   8.160        106.67	    11.314
   8.180        142.50	    13.077
   8.200        150.83	    13.454
   8.220        130.83	    12.530
   8.240        150.00	    13.416
   8.260        146.67	    13.266
   8.280        133.33	    12.649
   8.300        153.33	    13.565
   8.320        137.50	    12.845
   8.340        129.17	    12.450
   8.360        145.83	    13.229
   8.380        170.00	    14.283
   8.400        128.33	    12.410
   8.420        149.17	    13.379
   8.440        169.17	    14.248
   8.460        150.83	    13.454
   8.480        156.67	    13.711
   8.500        175.00	    14.491
   8.520        165.83	    14.107
   8.540        148.33	    13.342
   8.560        170.00	    14.283
   8.580        189.17	    15.067
   8.600        184.17	    14.866
   8.620        199.17	    15.460
   8.640        183.33	    14.832
   8.660        213.33	    16.000
   8.680        235.83	    16.823
   8.700        222.50	    16.340
   8.720        252.50	    17.407
   8.740        271.67	    18.055
   8.760        308.33	    19.235
   8.780        375.83	    21.237
   8.800        532.50	    25.278
   8.820        581.67	    26.420
   8.840        632.50	    27.550
   8.860        697.50	    28.931
   8.880        615.00	    27.166
   8.900        450.83	    23.259
   8.920        355.00	    20.640
   8.940        269.17	    17.972
   8.960        205.00	    15.684
   8.980        179.17	    14.663
   9.000        155.00	    13.638
   9.020        136.67	    12.806
   9.040        151.67	    13.491
   9.060        136.67	    12.806
   9.080        145.00	    13.191
   9.100        136.67	    12.806
   9.120        141.67	    13.038
   9.140        143.33	    13.115
   9.160        132.50	    12.610
   9.180        149.17	    13.379
   9.200        131.67	    12.570
   9.220        127.50	    12.369
   9.240        123.33	    12.166
   9.260         94.17	    10.630
   9.280        123.33	    12.166
   9.300        122.50	    12.124
   9.320        127.50	    12.369
   9.340        134.17	    12.689
   9.360        129.17	    12.450
   9.380        105.83	    11.269
   9.400        135.00	    12.728
   9.420        120.00	    12.000
   9.440        116.67	    11.832
   9.460        117.50	    11.874
   9.480        110.83	    11.533
   9.500         86.67	    10.198
   9.520        103.33	    11.136
   9.540        100.83	    11.000
   9.560        101.67	    11.045
   9.580        105.00	    11.225
   9.600        111.67	    11.576
   9.620        110.00	    11.489
   9.640         98.33	    10.863
   9.660        120.00	    12.000
   9.680        112.50	    11.619
   9.700        102.50	    11.091
   9.720        105.00	    11.225
   9.740        109.17	    11.446
   9.760        107.50	    11.358
   9.780        135.00	    12.728
   9.800        100.83	    11.000
   9.820        111.67	    11.576
   9.840        100.00	    10.954
   9.860         71.67	     9.274
   9.880         94.17	    10.630
   9.900         91.67	    10.488
   9.920        102.50	    11.091
   9.940        101.67	    11.045
   9.960        100.00	    10.954
   9.980         93.33	    10.583
  10.000         95.00	    10.677
  10.020        105.83	    11.269
  10.040        101.67	    11.045
  10.060         91.67	    10.488
  10.080        106.67	    11.314
  10.100         94.17	    10.630
  10.120         95.83	    10.724
  10.140         88.33	    10.296
  10.160         93.33	    10.583
  10.180         90.00	    10.392
  10.200         98.33	    10.863
  10.220         86.67	    10.198
  10.240         79.17	     9.747
  10.260         92.50	    10.536
  10.280         99.17	    10.909
  10.300         99.17	    10.909
  10.320        105.00	    11.225
  10.340         99.17	    10.909
  10.360        105.83	    11.269
  10.380        133.33	    12.649
  10.400        115.00	    11.747
  10.420         98.33	    10.863
  10.440        123.33	    12.166
  10.460        142.50	    13.077
  10.480        155.00	    13.638
  10.500        160.83	    13.892
  10.520        141.67	    13.038
  10.540        128.33	    12.410
  10.560        123.33	    12.166
  10.580        109.17	    11.446
  10.600        100.83	    11.000
  10.620         97.50	    10.817
  10.640         86.67	    10.198
  10.660         85.00	    10.100
  10.680         92.50	    10.536
  10.700         85.00	    10.100
  10.720         92.50	    10.536
  10.740         72.50	     9.327
  10.760        103.33	    11.136
  10.780         98.33	    10.863
  10.800         87.50	    10.247
  10.820         73.33	     9.381
  10.840         81.67	     9.899
  10.860         82.50	     9.950
  10.880        100.83	    11.000
  10.900         89.17	    10.344
  10.920         94.17	    10.630
  10.940         70.83	     9.220
  10.960         83.33	    10.000
  10.980         98.33	    10.863
  11.000         76.67	     9.592
  11.020         85.00	    10.100
  11.040         74.17	     9.434
  11.060         85.00	    10.100
  11.080         84.17	    10.050
  11.100         95.00	    10.677
  11.120         72.50	     9.327
  11.140         70.00	     9.165
  11.160         65.00	     8.832
  11.180         81.67	     9.899
  11.200         66.67	     8.944
  11.220         75.00	     9.487
  11.240         80.83	     9.849
  11.260         75.83	     9.539
  11.280         67.50	     9.000
  11.300         88.33	    10.296
  11.320         85.00	    10.100
  11.340         93.33	    10.583
  11.360         87.50	    10.247
  11.380         79.17	     9.747
  11.400         86.67	    10.198
  11.420         81.67	     9.899
  11.440         90.00	    10.392
  11.460         73.33	     9.381
  11.480         84.17	    10.050
  11.500         86.67	    10.198
  11.520         81.67	     9.899
  11.540         79.17	     9.747
  11.560         80.00	     9.798
  11.580         79.17	     9.747
  11.600         81.67	     9.899
  11.620         75.00	     9.487
  11.640         84.17	    10.050
  11.660         85.83	    10.149
  11.680         77.50	     9.644
  11.700         85.00	    10.100
  11.720         73.33	     9.381
  11.740         79.17	     9.747
  11.760         83.33	    10.000
  11.780         92.50	    10.536
  11.800         84.17	    10.050
  11.820         68.33	     9.055
  11.840         76.67	     9.592
  11.860         71.67	     9.274
  11.880         76.67	     9.592
  11.900         75.00	     9.487
  11.920         80.00	     9.798
  11.940         89.17	    10.344
  11.960         89.17	    10.344
  11.980        116.67	    11.832
  12.000         97.50	    10.817
  12.020        101.67	    11.045
  12.040         99.17	    10.909
  12.060        117.50	    11.874
  12.080        119.17	    11.958
  12.100        132.50	    12.610
  12.120        155.83	    13.675
  12.140        190.00	    15.100
  12.160        214.17	    16.031
  12.180        238.33	    16.912
  12.200        243.33	    17.088
  12.220        234.17	    16.763
  12.240        178.33	    14.629
  12.260        169.17	    14.248
  12.280        136.67	    12.806
  12.300        174.17	    14.457
  12.320        174.17	    14.457
  12.340        194.17	    15.264
  12.360        201.67	    15.556
  12.380        221.67	    16.310
  12.400        284.17	    18.466
  12.420        345.83	    20.372
  12.440        410.00	    22.181
  12.460        478.33	    23.958
  12.480        536.67	    25.377
  12.500        500.00	    24.495
  12.520        417.50	    22.383
  12.540        321.67	    19.647
  12.560        223.33	    16.371
  12.580        165.83	    14.107
  12.600        135.00	    12.728
  12.620        128.33	    12.410
  12.640        117.50	    11.874
  12.660         78.33	     9.695
  12.680         95.83	    10.724
  12.700         74.17	     9.434
  12.720         91.67	    10.488
  12.740         97.50	    10.817
  12.760         74.17	     9.434
  12.780         66.67	     8.944
  12.800         65.00	     8.832
  12.820         92.50	    10.536
  12.840         69.17	     9.110
  12.860         59.17	     8.426
  12.880         64.17	     8.775
  12.900         59.17	     8.426
  12.920         73.33	     9.381
  12.940         75.83	     9.539
  12.960         72.50	     9.327
  12.980         67.50	     9.000
  13.000         68.33	     9.055
  13.020         69.17	     9.110
  13.040         62.50	     8.660
  13.060         64.17	     8.775
  13.080         85.83	    10.149
  13.100         70.00	     9.165
  13.120         74.17	     9.434
  13.140         74.17	     9.434
  13.160         68.33	     9.055
  13.180         57.50	     8.307
  13.200         59.17	     8.426
  13.220         65.83	     8.888
  13.240         80.83	     9.849
  13.260         59.17	     8.426
  13.280         65.00	     8.832
  13.300         63.33	     8.718
  13.320         74.17	     9.434
  13.340         77.50	     9.644
  13.360         63.33	     8.718
  13.380         78.33	     9.695
  13.400         47.50	     7.550
  13.420         71.67	     9.274
  13.440         53.33	     8.000
  13.460         62.50	     8.660
  13.480         66.67	     8.944
  13.500         64.17	     8.775
  13.520         71.67	     9.274
  13.540         76.67	     9.592
  13.560         68.33	     9.055
  13.580         65.00	     8.832
  13.600         65.83	     8.888
  13.620         70.00	     9.165
  13.640         58.33	     8.367
  13.660         62.50	     8.660
  13.680         71.67	     9.274
  13.700         82.50	     9.950
  13.720         79.17	     9.747
  13.740         75.00	     9.487
  13.760         83.33	    10.000
  13.780         81.67	     9.899
  13.800         78.33	     9.695
  13.820         89.17	    10.344
  13.840        105.00	    11.225
  13.860         95.00	    10.677
  13.880         71.67	     9.274
  13.900         80.00	     9.798
  13.920         77.50	     9.644
  13.940         85.83	    10.149
  13.960         75.83	     9.539
  13.980         75.83	     9.539
  14.000         59.17	     8.426
  14.020         68.33	     9.055
  14.040         61.67	     8.602
  14.060         67.50	     9.000
  14.080         66.67	     8.944
  14.100         63.33	     8.718
  14.120         51.67	     7.874
  14.140         65.83	     8.888
  14.160         58.33	     8.367
  14.180         58.33	     8.367
  14.200         59.17	     8.426
  14.220         68.33	     9.055
  14.240         58.33	     8.367
  14.260         61.67	     8.602
  14.280         62.50	     8.660
  14.300         55.83	     8.185
  14.320         74.17	     9.434
  14.340         50.00	     7.746
  14.360         64.17	     8.775
  14.380         51.67	     7.874
  14.400         68.33	     9.055
  14.420         53.33	     8.000
  14.440         68.33	     9.055
  14.460         50.00	     7.746
  14.480         50.83	     7.810
  14.500         69.17	     9.110
  14.520         50.83	     7.810
  14.540         55.83	     8.185
  14.560         60.83	     8.544
  14.580         57.50	     8.307
  14.600         58.33	     8.367
  14.620         58.33	     8.367
  14.640         41.67	     7.071
  14.660         52.50	     7.937
  14.680         55.00	     8.124
  14.700         57.50	     8.307
  14.720         60.00	     8.485
  14.740         62.50	     8.660
  14.760         50.83	     7.810
  14.780         61.67	     8.602
  14.800         64.17	     8.775
  14.820         55.83	     8.185
  14.840         57.50	     8.307
  14.860         48.33	     7.616
  14.880         60.00	     8.485
  14.900         71.67	     9.274
  14.920         75.83	     9.539
  14.940         65.83	     8.888
  14.960         76.67	     9.592
  14.980         55.83	     8.185
  15.000         61.67	     8.602
  15.020         55.83	     8.185
  15.040         65.00	     8.832
  15.060         62.50	     8.660
  15.080         52.50	     7.937
  15.100         66.67	     8.944
  15.120         49.17	     7.681
  15.140         50.83	     7.810
  15.160         60.00	     8.485
  15.180         55.00	     8.124
  15.200         57.50	     8.307
  15.220         53.33	     8.000
  15.240         58.33	     8.367
  15.260         59.17	     8.426
  15.280         47.50	     7.550
  15.300         60.00	     8.485
  15.320         60.83	     8.544
  15.340         50.83	     7.810
  15.360         54.17	     8.062
  15.380         46.67	     7.483
  15.400         58.33	     8.367
  15.420         50.00	     7.746
  15.440         40.83	     7.000
  15.460         52.50	     7.937
  15.480         60.83	     8.544
  15.500         47.50	     7.550
  15.520         54.17	     8.062
  15.540         34.17	     6.403
  15.560         48.33	     7.616
  15.580         54.17	     8.062
  15.600         52.50	     7.937
  15.620         53.33	     8.000
  15.640         55.00	     8.124
  15.660         52.50	     7.937
  15.680         62.50	     8.660
  15.700         62.50	     8.660
  15.720         60.83	     8.544
  15.740         70.83	     9.220
  15.760         58.33	     8.367
  15.780         52.50	     7.937
  15.800         62.50	     8.660
  15.820         65.83	     8.888
  15.840         66.67	     8.944
  15.860         58.33	     8.367
  15.880         45.00	     7.348
  15.900         59.17	     8.426
  15.920         40.83	     7.000
  15.940         55.83	     8.185
  15.960         64.17	     8.775
  15.980         54.17	     8.062
  16.000         55.83	     8.185
  16.020         52.50	     7.937
  16.040         45.00	     7.348
  16.060         55.83	     8.185
  16.080         57.50	     8.307
  16.100         38.33	     6.782
  16.120         46.67	     7.483
  16.140         56.67	     8.246
  16.160         53.33	     8.000
  16.180         52.50	     7.937
  16.200         38.33	     6.782
  16.220         46.67	     7.483
  16.240         50.00	     7.746
  16.260         52.50	     7.937
  16.280         54.17	     8.062
  16.300         45.00	     7.348
  16.320         45.83	     7.416
  16.340         45.83	     7.416
  16.360         57.50	     8.307
  16.380         42.50	     7.141
  16.400         53.33	     8.000
  16.420         40.83	     7.000
  16.440         40.00	     6.928
  16.460         47.50	     7.550
  16.480         56.67	     8.246
  16.500         58.33	     8.367
  16.520         56.67	     8.246
  16.540         52.50	     7.937
  16.560         48.33	     7.616
  16.580         60.00	     8.485
  16.600         48.33	     7.616
  16.620         44.17	     7.280
  16.640         58.33	     8.367
  16.660         50.00	     7.746
  16.680         55.00	     8.124
  16.700         52.50	     7.937
  16.720         49.17	     7.681
  16.740         46.67	     7.483
  16.760         49.17	     7.681
  16.780         52.50	     7.937
  16.800         50.00	     7.746
  16.820         50.00	     7.746
  16.840         45.00	     7.348
  16.860         55.00	     8.124
  16.880         42.50	     7.141
  16.900         47.50	     7.550
  16.920         43.33	     7.211
  16.940         50.00	     7.746
  16.960         55.00	     8.124
  16.980         52.50	     7.937
  17.000         52.50	     7.937
  17.020         57.50	     8.307
  17.040         49.17	     7.681
  17.060         49.17	     7.681
  17.080         47.50	     7.550
  17.100         42.50	     7.141
  17.120         59.17	     8.426
  17.140         52.50	     7.937
  17.160         50.00	     7.746
  17.180         50.00	     7.746
  17.200         48.33	     7.616
  17.220         55.00	     8.124
  17.240         50.83	     7.810
  17.260         52.50	     7.937
  17.280         47.50	     7.550
  17.300         71.67	     9.274
  17.320         55.83	     8.185
  17.340         53.33	     8.000
  17.360         67.50	     9.000
  17.380         56.67	     8.246
  17.400         65.00	     8.832
  17.420         64.17	     8.775
  17.440         48.33	     7.616
  17.460         56.67	     8.246
  17.480         54.17	     8.062
  17.500         54.17	     8.062
  17.520         55.83	     8.185
  17.540         55.83	     8.185
  17.560         70.00	     9.165
  17.580         62.50	     8.660
  17.600         57.50	     8.307
  17.620         62.50	     8.660
  17.640         72.50	     9.327
  17.660         71.67	     9.274
  17.680        115.83	    11.790
  17.700        116.67	    11.832
  17.720        157.50	    13.748
  17.740        202.50	    15.588
  17.760        273.33	    18.111
  17.780        271.67	    18.055
  17.800        296.67	    18.868
  17.820        252.50	    17.407
  17.840        243.33	    17.088
  17.860        173.33	    14.422
  17.880        155.83	    13.675
  17.900        107.50	    11.358
  17.920         88.33	    10.296
  17.940         72.50	     9.327
  17.960         69.17	     9.110
  17.980         70.00	     9.165
  18.000         56.67	     8.246
  18.020         63.33	     8.718
  18.040         70.00	     9.165
  18.060         67.50	     9.000
  18.080         58.33	     8.367
  18.100         69.17	     9.110
  18.120         61.67	     8.602
  18.140         62.50	     8.660
  18.160         44.17	     7.280
  18.180         67.50	     9.000
  18.200         52.50	     7.937
  18.220         50.00	     7.746
  18.240         54.17	     8.062
  18.260         55.00	     8.124
  18.280         46.67	     7.483
  18.300         53.33	     8.000
  18.320         54.17	     8.062
  18.340         61.67	     8.602
  18.360         64.17	     8.775
  18.380         77.50	     9.644
  18.400         69.17	     9.110
  18.420         64.17	     8.775
  18.440         69.17	     9.110
  18.460         50.00	     7.746
  18.480         57.50	     8.307
  18.500         63.33	     8.718
  18.520         66.67	     8.944
  18.540         86.67	    10.198
  18.560         93.33	    10.583
  18.580         70.00	     9.165
  18.600         78.33	     9.695
  18.620         85.00	    10.100
  18.640         99.17	    10.909
  18.660         77.50	     9.644
  18.680        119.17	    11.958
  18.700        100.00	    10.954
  18.720        145.83	    13.229
  18.740        198.33	    15.427
  18.760        200.00	    15.492
  18.780        231.67	    16.673
  18.800        175.83	    14.526
  18.820        158.33	    13.784
  18.840        142.50	    13.077
  18.860        112.50	    11.619
  18.880         88.33	    10.296
  18.900         73.33	     9.381
  18.920         64.17	     8.775
  18.940         57.50	     8.307
  18.960         55.83	     8.185
  18.980         59.17	     8.426
  19.000         57.50	     8.307
  19.020         65.00	     8.832
  19.040         59.17	     8.426
  19.060         60.83	     8.544
  19.080         55.00	     8.124
  19.100         49.17	     7.681
  19.120         75.83	     9.539
  19.140         77.50	     9.644
  19.160         69.17	     9.110
  19.180         68.33	     9.055
  19.200         61.67	     8.602
  19.220         71.67	     9.274
  19.240         82.50	     9.950
  19.260         83.33	    10.000
  19.280         70.00	     9.165
  19.300         75.83	     9.539
  19.320         60.00	     8.485
  19.340         58.33	     8.367
  19.360         61.67	     8.602
  19.380         69.17	     9.110
  19.400         60.83	     8.544
  19.420         66.67	     8.944
  19.440         57.50	     8.307
  19.460         54.17	     8.062
  19.480         60.00	     8.485
  19.500         60.00	     8.485
  19.520         74.17	     9.434
  19.540         80.00	     9.798
  19.560         84.17	    10.050
  19.580         84.17	    10.050
  19.600        108.33	    11.402
  19.620        109.17	    11.446
  19.640        111.67	    11.576
  19.660        127.50	    12.369
  19.680        120.00	    12.000
  19.700        115.00	    11.747
  19.720        126.67	    12.329
  19.740        126.67	    12.329
  19.760        140.83	    13.000
  19.780        155.00	    13.638
  19.800        190.83	    15.133
  19.820        188.33	    15.033
  19.840        200.00	    15.492
  19.860        167.50	    14.177
  19.880        185.00	    14.900
  19.900        142.50	    13.077
  19.920        143.33	    13.115
  19.940        105.00	    11.225
  19.960         85.00	    10.100
  19.980         96.67	    10.770
  20.000         78.33	     9.695
  20.020         69.17	     9.110
  20.040         73.33	     9.381
  20.060         82.50	     9.950
  20.080         84.17	    10.050
  20.100         76.67	     9.592
  20.120         81.67	     9.899
  20.140         60.00	     8.485
  20.160         74.17	     9.434
  20.180         70.83	     9.220
  20.200         66.67	     8.944
  20.220         50.83	     7.810
  20.240         49.17	     7.681
  20.260         58.33	     8.367
  20.280         54.17	     8.062
  20.300         64.17	     8.775
  20.320         50.83	     7.810
  20.340         53.33	     8.000
  20.360         51.67	     7.874
  20.380         52.50	     7.937
  20.400         54.17	     8.062
  20.420         58.33	     8.367
  20.440         50.00	     7.746
  20.460         65.83	     8.888
  20.480         68.33	     9.055
  20.500         66.67	     8.944
  20.520         76.67	     9.592
  20.540         65.83	     8.888
  20.560         81.67	     9.899
  20.580         91.67	    10.488
  20.600         80.00	     9.798
  20.620         73.33	     9.381
  20.640         90.00	    10.392
  20.660         85.83	    10.149
  20.680         65.83	     8.888
  20.700         91.67	    10.488
  20.720        104.17	    11.180
  20.740        112.50	    11.619
  20.760        173.33	    14.422
  20.780        252.50	    17.407
  20.800        440.83	    23.000
  20.820        470.83	    23.770
  20.840        439.17	    22.956
  20.860        371.67	    21.119
  20.880        298.33	    18.921
  20.900        219.17	    16.217
  20.920        144.17	    13.153
  20.940        142.50	    13.077
  20.960        103.33	    11.136
  20.980         98.33	    10.863
  21.000         84.17	    10.050
  21.020         95.00	    10.677
  21.040         89.17	    10.344
  21.060         60.00	     8.485
  21.080         76.67	     9.592
  21.100         63.33	     8.718
  21.120         55.00	     8.124
  21.140         62.50	     8.660
  21.160         54.17	     8.062
  21.180         50.83	     7.810
  21.200         64.17	     8.775
  21.220         50.83	     7.810
  21.240         55.83	     8.185
  21.260         60.00	     8.485
  21.280         54.17	     8.062
  21.300         46.67	     7.483
  21.320         54.17	     8.062
  21.340         41.67	     7.071
  21.360         56.67	     8.246
  21.380         52.50	     7.937
  21.400         52.50	     7.937
  21.420         55.83	     8.185
  21.440         65.00	     8.832
  21.460         65.83	     8.888
  21.480         70.83	     9.220
  21.500         91.67	    10.488
  21.520         75.00	     9.487
  21.540         95.83	    10.724
  21.560         76.67	     9.592
  21.580         75.83	     9.539
  21.600         82.50	     9.950
  21.620         79.17	     9.747
  21.640         66.67	     8.944
  21.660         90.83	    10.440
  21.680         65.83	     8.888
  21.700         46.67	     7.483
  21.720         58.33	     8.367
  21.740         55.83	     8.185
  21.760         70.00	     9.165
  21.780         58.33	     8.367
  21.800         70.00	     9.165
  21.820         75.00	     9.487
  21.840         53.33	     8.000
  21.860         60.00	     8.485
  21.880         69.17	     9.110
  21.900         89.17	    10.344
  21.920         90.00	    10.392
  21.940        119.17	    11.958
  21.960        155.83	    13.675
  21.980        183.33	    14.832
  22.000        230.00	    16.613
  22.020        300.83	    19.000
  22.040        252.50	    17.407
  22.060        209.17	    15.843
  22.080        161.67	    13.928
  22.100        120.00	    12.000
  22.120         78.33	     9.695
  22.140         82.50	     9.950
  22.160         67.50	     9.000
  22.180         65.83	     8.888
  22.200         50.83	     7.810
  22.220         55.00	     8.124
  22.240         72.50	     9.327
  22.260         67.50	     9.000
  22.280         79.17	     9.747
  22.300         54.17	     8.062
  22.320         63.33	     8.718
  22.340         68.33	     9.055
  22.360         64.17	     8.775
  22.380         85.00	    10.100
  22.400         54.17	     8.062
  22.420         55.83	     8.185
  22.440         70.83	     9.220
  22.460         77.50	     9.644
  22.480         61.67	     8.602
  22.500         70.00	     9.165
  22.520         63.33	     8.718
  22.540         74.17	     9.434
  22.560         58.33	     8.367
  22.580         45.00	     7.348
  22.600         56.67	     8.246
  22.620         47.50	     7.550
  22.640         65.83	     8.888
  22.660         65.00	     8.832
  22.680         59.17	     8.426
  22.700         60.00	     8.485
  22.720         75.83	     9.539
  22.740         65.83	     8.888
  22.760         70.83	     9.220
  22.780         93.33	    10.583
  22.800        103.33	    11.136
  22.820        130.00	    12.490
  22.840        154.17	    13.601
  22.860        165.00	    14.071
  22.880        148.33	    13.342
  22.900        183.33	    14.832
  22.920        148.33	    13.342
  22.940        123.33	    12.166
  22.960        145.00	    13.191
  22.980        165.83	    14.107
  23.000        115.00	    11.747
  23.020        129.17	    12.450
  23.040        118.33	    11.916
  23.060        105.00	    11.225
  23.080         91.67	    10.488
  23.100        101.67	    11.045
  23.120         69.17	     9.110
  23.140         70.83	     9.220
  23.160         65.00	     8.832
  23.180         62.50	     8.660
  23.200         66.67	     8.944
  23.220         62.50	     8.660
  23.240         67.50	     9.000
  23.260         50.83	     7.810
  23.280         73.33	     9.381
  23.300         65.00	     8.832
  23.320         65.83	     8.888
  23.340         65.83	     8.888
  23.360         55.83	     8.185
  23.380         65.83	     8.888
  23.400         65.00	     8.832
  23.420         92.50	    10.536
  23.440        137.50	    12.845
  23.460        152.50	    13.528
  23.480        159.17	    13.820
  23.500        205.00	    15.684
  23.520        205.83	    15.716
  23.540        190.00	    15.100
  23.560        196.67	    15.362
  23.580        177.50	    14.595
  23.600        142.50	    13.077
  23.620        137.50	    12.845
  23.640        107.50	    11.358
  23.660        116.67	    11.832
  23.680        103.33	    11.136
  23.700         83.33	    10.000
  23.720        123.33	    12.166
  23.740        110.83	    11.533
  23.760        140.00	    12.961
  23.780        131.67	    12.570
  23.800        145.00	    13.191
  23.820        151.67	    13.491
  23.840        143.33	    13.115
  23.860        150.83	    13.454
  23.880        149.17	    13.379
  23.900        118.33	    11.916
  23.920        129.17	    12.450
  23.940         98.33	    10.863
  23.960        107.50	    11.358
  23.980         95.00	    10.677
  24.000         82.50	     9.950
  24.020         84.17	    10.050
  24.040         84.17	    10.050
  24.060        104.17	    11.180
  24.080         95.83	    10.724
  24.100         96.67	    10.770
  24.120        121.67	    12.083
  24.140        125.83	    12.288
  24.160        140.83	    13.000
  24.180        149.17	    13.379
  24.200        150.83	    13.454
  24.220        168.33	    14.213
  24.240        177.50	    14.595
  24.260        173.33	    14.422
  24.280        160.83	    13.892
  24.300        140.83	    13.000
  24.320        127.50	    12.369
  24.340        124.17	    12.207
  24.360        108.33	    11.402
  24.380        111.67	    11.576
  24.400        105.83	    11.269
  24.420         82.50	     9.950
  24.440        102.50	    11.091
  24.460         75.83	     9.539
  24.480         99.17	    10.909
  24.500        104.17	    11.180
  24.520        107.50	    11.358
  24.540        131.67	    12.570
  24.560        160.00	    13.856
  24.580        165.00	    14.071
  24.600        184.17	    14.866
  24.620        174.17	    14.457
  24.640        209.17	    15.843
  24.660        217.50	    16.155
  24.680        195.83	    15.330
  24.700        201.67	    15.556
  24.720        155.00	    13.638
  24.740        168.33	    14.213
  24.760        144.17	    13.153
  24.780        130.00	    12.490
  24.800        120.83	    12.042
  24.820        105.83	    11.269
  24.840        121.67	    12.083
  24.860        132.50	    12.610
  24.880        130.83	    12.530
  24.900        111.67	    11.576
  24.920        118.33	    11.916
  24.940        120.83	    12.042
  24.960        138.33	    12.884
  24.980        145.00	    13.191
  25.000        150.83	    13.454
  25.020        180.83	    14.731
  25.040        182.50	    14.799
  25.060        230.83	    16.643
  25.080        293.33	    18.762
  25.100        355.83	    20.664
  25.120        400.83	    21.932
  25.140        444.17	    23.087
  25.160        426.67	    22.627
  25.180        362.50	    20.857
  25.200        323.33	    19.698
  25.220        275.00	    18.166
  25.240        216.67	    16.125
  25.260        167.50	    14.177
  25.280        160.00	    13.856
  25.300        139.17	    12.923
  25.320        144.17	    13.153
  25.340        130.00	    12.490
  25.360        165.00	    14.071
  25.380        165.83	    14.107
  25.400        159.17	    13.820
  25.420        210.83	    15.906
  25.440        235.83	    16.823
  25.460        255.00	    17.493
  25.480        275.00	    18.166
  25.500        272.50	    18.083
  25.520        255.00	    17.493
  25.540        237.50	    16.882
  25.560        205.00	    15.684
  25.580        210.83	    15.906
  25.600        195.83	    15.330
  25.620        160.00	    13.856
  25.640        150.00	    13.416
  25.660        154.17	    13.601
  25.680        120.00	    12.000
  25.700        106.67	    11.314
  25.720        100.83	    11.000
  25.740        104.17	    11.180
  25.760         85.00	    10.100
  25.780         73.33	     9.381
  25.800        101.67	    11.045
  25.820         98.33	    10.863
  25.840         83.33	    10.000
  25.860         82.50	     9.950
  25.880         85.83	    10.149
  25.900         71.67	     9.274
  25.920         75.83	     9.539
  25.940         70.83	     9.220
  25.960         79.17	     9.747
  25.980         78.33	     9.695
  26.000         71.67	     9.274
  26.020         79.17	     9.747
  26.040         85.83	    10.149
  26.060         66.67	     8.944
  26.080         85.00	    10.100
  26.100         91.67	    10.488
  26.120         84.17	    10.050
  26.140        105.00	    11.225
  26.160         95.00	    10.677
  26.180        104.17	    11.180
  26.200         80.00	     9.798
  26.220        114.17	    11.705
  26.240        112.50	    11.619
  26.260        125.00	    12.247
  26.280        145.00	    13.191
  26.300        159.17	    13.820
  26.320        158.33	    13.784
  26.340        199.17	    15.460
  26.360        197.50	    15.395
  26.380        230.00	    16.613
  26.400        229.17	    16.583
  26.420        211.67	    15.937
  26.440        241.67	    17.029
  26.460        248.33	    17.263
  26.480        244.17	    17.117
  26.500        350.83	    20.518
  26.520        445.83	    23.130
  26.540        753.33	    30.067
  26.560       1140.00	    36.986
  26.580       1673.33	    44.811
  26.600       2023.33	    49.275
  26.620       1843.33	    47.032
  26.640       1730.00	    45.563
  26.660       1615.83	    44.034
  26.680       1355.83	    40.336
  26.700       1070.00	    35.833
  26.720        850.00	    31.937
  26.740        698.33	    28.948
  26.760        697.50	    28.931
  26.780        700.00	    28.983
  26.800        690.83	    28.792
  26.820        904.17	    32.939
  26.840        834.17	    31.639
  26.860        840.00	    31.749
  26.880        777.50	    30.545
  26.900        670.00	    28.355
  26.920        550.00	    25.690
  26.940        413.33	    22.271
  26.960        324.17	    19.723
  26.980        238.33	    16.912
  27.000        195.00	    15.297
  27.020        194.17	    15.264
  27.040        160.00	    13.856
  27.060        143.33	    13.115
  27.080        145.83	    13.229
  27.100        123.33	    12.166
  27.120        135.00	    12.728
  27.140        165.00	    14.071
  27.160        145.83	    13.229
  27.180        131.67	    12.570
  27.200        131.67	    12.570
  27.220        103.33	    11.136
  27.240        115.00	    11.747
  27.260        109.17	    11.446
  27.280        100.00	    10.954
  27.300         95.00	    10.677
  27.320         97.50	    10.817
  27.340         90.00	    10.392
  27.360        100.00	    10.954
  27.380         98.33	    10.863
  27.400        102.50	    11.091
  27.420        125.00	    12.247
  27.440        133.33	    12.649
  27.460        125.00	    12.247
  27.480        147.50	    13.304
  27.500        145.83	    13.229
  27.520        130.83	    12.530
  27.540        140.00	    12.961
  27.560        120.83	    12.042
  27.580         95.00	    10.677
  27.600        113.33	    11.662
  27.620        132.50	    12.610
  27.640        180.00	    14.697
  27.660        219.17	    16.217
  27.680        236.67	    16.852
  27.700        325.00	    19.748
  27.720        391.67	    21.679
  27.740        431.67	    22.760
  27.760        454.17	    23.345
  27.780        426.67	    22.627
  27.800        503.33	    24.576
  27.820        615.83	    27.185
  27.840        673.33	    28.425
  27.860        816.67	    31.305
  27.880        878.33	    32.465
  27.900        874.17	    32.388
  27.920        759.17	    30.183
  27.940        703.33	    29.052
  27.960        552.50	    25.749
  27.980        470.00	    23.749
  28.000        366.67	    20.976
  28.020        300.83	    19.000
  28.040        246.67	    17.205
  28.060        237.50	    16.882
  28.080        213.33	    16.000
  28.100        218.33	    16.186
  28.120        185.00	    14.900
  28.140        159.17	    13.820
  28.160        169.17	    14.248
  28.180        165.83	    14.107
  28.200        142.50	    13.077
  28.220        164.17	    14.036
  28.240        158.33	    13.784
  28.260        171.67	    14.353
  28.280        162.50	    13.964
  28.300        191.67	    15.166
  28.320        169.17	    14.248
  28.340        133.33	    12.649
  28.360        119.17	    11.958
  28.380        123.33	    12.166
  28.400        103.33	    11.136
  28.420         91.67	    10.488
  28.440         79.17	     9.747
  28.460         75.83	     9.539
  28.480         90.83	    10.440
  28.500        105.00	    11.225
  28.520        120.00	    12.000
  28.540        115.83	    11.790
  28.560        125.00	    12.247
  28.580        125.83	    12.288
  28.600        122.50	    12.124
  28.620        132.50	    12.610
  28.640        127.50	    12.369
  28.660        123.33	    12.166
  28.680        114.17	    11.705
  28.700        123.33	    12.166
  28.720        127.50	    12.369
  28.740        118.33	    11.916
  28.760        112.50	    11.619
  28.780        113.33	    11.662
  28.800        106.67	    11.314
  28.820        103.33	    11.136
  28.840         90.83	    10.440
  28.860         80.83	     9.849
  28.880         82.50	     9.950
  28.900         83.33	    10.000
  28.920         55.83	     8.185
  28.940         86.67	    10.198
  28.960         65.83	     8.888
  28.980         50.00	     7.746
  29.000         54.17	     8.062
  29.020         50.83	     7.810
  29.040         46.67	     7.483
  29.060         49.17	     7.681
  29.080         54.17	     8.062
  29.100         59.17	     8.426
  29.120         60.00	     8.485
  29.140         51.67	     7.874
  29.160         55.00	     8.124
  29.180         55.83	     8.185
  29.200         52.50	     7.937
  29.220         41.67	     7.071
  29.240         62.50	     8.660
  29.260         48.33	     7.616
  29.280         45.00	     7.348
  29.300         56.67	     8.246
  29.320         47.50	     7.550
  29.340         55.83	     8.185
  29.360         61.67	     8.602
  29.380         45.83	     7.416
  29.400         65.83	     8.888
  29.420         49.17	     7.681
  29.440         58.33	     8.367
  29.460         54.17	     8.062
  29.480         55.83	     8.185
  29.500         61.67	     8.602
  29.520         61.67	     8.602
  29.540         48.33	     7.616
  29.560         60.83	     8.544
  29.580         69.17	     9.110
  29.600         68.33	     9.055
  29.620         74.17	     9.434
  29.640         75.00	     9.487
  29.660         60.83	     8.544
  29.680         73.33	     9.381
  29.700         85.00	    10.100
  29.720         94.17	    10.630
  29.740        110.00	    11.489
  29.760        138.33	    12.884
  29.780        161.67	    13.928
  29.800        188.33	    15.033
  29.820        240.83	    17.000
  29.840        256.67	    17.550
  29.860        270.00	    18.000
  29.880        298.33	    18.921
  29.900        270.00	    18.000
  29.920        251.67	    17.378
  29.940        245.00	    17.146
  29.960        192.50	    15.199
  29.980        180.83	    14.731
  30.000        159.17	    13.820
  30.020        125.00	    12.247
  30.040        138.33	    12.884
  30.060        125.83	    12.288
  30.080        120.00	    12.000
  30.100        101.67	    11.045
  30.120        112.50	    11.619
  30.140         94.17	    10.630
  30.160        108.33	    11.402
  30.180        107.50	    11.358
  30.200        105.83	    11.269
  30.220         78.33	     9.695
  30.240         90.00	    10.392
  30.260         83.33	    10.000
  30.280         78.33	     9.695
  30.300         88.33	    10.296
  30.320        109.17	    11.446
  30.340         88.33	    10.296
  30.360        101.67	    11.045
  30.380        115.00	    11.747
  30.400        114.17	    11.705
  30.420        130.83	    12.530
  30.440        127.50	    12.369
  30.460        109.17	    11.446
  30.480        117.50	    11.874
  30.500        100.83	    11.000
  30.520        105.00	    11.225
  30.540         99.17	    10.909
  30.560         82.50	     9.950
  30.580         70.83	     9.220
  30.600         80.00	     9.798
  30.620         50.83	     7.810
  30.640         55.00	     8.124
  30.660         64.17	     8.775
  30.680         56.67	     8.246
  30.700         62.50	     8.660
  30.720         41.67	     7.071
  30.740         59.17	     8.426
  30.760         60.83	     8.544
  30.780         85.83	    10.149
  30.800         82.50	     9.950
  30.820        105.83	    11.269
  30.840         77.50	     9.644
  30.860         83.33	    10.000
  30.880         87.50	    10.247
  30.900         78.33	     9.695
  30.920         76.67	     9.592
  30.940         79.17	     9.747
  30.960         78.33	     9.695
  30.980         92.50	    10.536
  31.000        104.17	    11.180
  31.020        109.17	    11.446
  31.040        116.67	    11.832
  31.060        142.50	    13.077
  31.080        137.50	    12.845
  31.100        144.17	    13.153
  31.120        135.83	    12.767
  31.140        151.67	    13.491
  31.160        174.17	    14.457
  31.180        200.00	    15.492
  31.200        192.50	    15.199
  31.220        236.67	    16.852
  31.240        200.83	    15.524
  31.260        236.67	    16.852
  31.280        225.00	    16.432
  31.300        183.33	    14.832
  31.320        168.33	    14.213
  31.340        149.17	    13.379
  31.360        132.50	    12.610
  31.380        130.00	    12.490
  31.400        107.50	    11.358
  31.420         95.83	    10.724
  31.440         90.00	    10.392
  31.460         93.33	    10.583
  31.480         97.50	    10.817
  31.500        100.83	    11.000
  31.520        110.83	    11.533
  31.540        120.00	    12.000
  31.560        114.17	    11.705
  31.580        119.17	    11.958
  31.600        108.33	    11.402
  31.620        116.67	    11.832
  31.640        103.33	    11.136
  31.660         87.50	    10.247
  31.680         77.50	     9.644
  31.700         88.33	    10.296
  31.720         58.33	     8.367
  31.740         58.33	     8.367
  31.760         57.50	     8.307
  31.780         51.67	     7.874
  31.800         63.33	     8.718
  31.820         85.00	    10.100
  31.840         60.83	     8.544
  31.860         88.33	    10.296
  31.880         76.67	     9.592
  31.900         90.83	    10.440
  31.920         99.17	    10.909
  31.940         83.33	    10.000
  31.960         91.67	    10.488
  31.980        112.50	    11.619
  32.000        120.00	    12.000
  32.020        150.00	    13.416
  32.040        146.67	    13.266
  32.060        160.00	    13.856
  32.080        144.17	    13.153
  32.100        143.33	    13.115
  32.120        138.33	    12.884
  32.140        120.00	    12.000
  32.160        110.83	    11.533
  32.180        102.50	    11.091
  32.200         79.17	     9.747
  32.220         67.50	     9.000
  32.240         77.50	     9.644
  32.260         44.17	     7.280
  32.280         46.67	     7.483
  32.300         59.17	     8.426
  32.320         64.17	     8.775
  32.340         55.83	     8.185
  32.360         50.00	     7.746
  32.380         43.33	     7.211
  32.400         44.17	     7.280
  32.420         46.67	     7.483
  32.440         51.67	     7.874
  32.460         50.00	     7.746
  32.480         48.33	     7.616
  32.500         43.33	     7.211
  32.520         45.00	     7.348
  32.540         50.00	     7.746
  32.560         34.17	     6.403
  32.580         44.17	     7.280
  32.600         43.33	     7.211
  32.620         42.50	     7.141
  32.640         42.50	     7.141
  32.660         50.00	     7.746
  32.680         45.83	     7.416
  32.700         44.17	     7.280
  32.720         42.50	     7.141
  32.740         52.50	     7.937
  32.760         42.50	     7.141
  32.780         56.67	     8.246
  32.800         26.67	     5.657
  32.820         52.50	     7.937
  32.840         48.33	     7.616
  32.860         55.00	     8.124
  32.880         56.67	     8.246
  32.900         50.00	     7.746
  32.920         47.50	     7.550
  32.940         59.17	     8.426
  32.960         64.17	     8.775
  32.980        100.00	    10.954
  33.000         78.33	     9.695
  33.020         90.00	    10.392
  33.040         88.33	    10.296
  33.060         72.50	     9.327
  33.080         75.83	     9.539
  33.100         60.00	     8.485
  33.120         54.17	     8.062
  33.140         61.67	     8.602
  33.160         55.83	     8.185
  33.180         54.17	     8.062
  33.200         38.33	     6.782
  33.220         51.67	     7.874
  33.240         50.83	     7.810
  33.260         52.50	     7.937
  33.280         49.17	     7.681
  33.300         51.67	     7.874
  33.320         57.50	     8.307
  33.340         59.17	     8.426
  33.360         67.50	     9.000
  33.380         58.33	     8.367
  33.400         55.83	     8.185
  33.420         60.00	     8.485
  33.440         73.33	     9.381
  33.460         59.17	     8.426
  33.480         64.17	     8.775
  33.500         63.33	     8.718
  33.520         70.83	     9.220
  33.540         73.33	     9.381
  33.560         46.67	     7.483
  33.580         55.83	     8.185
  33.600         60.83	     8.544
  33.620         59.17	     8.426
  33.640         50.83	     7.810
  33.660         47.50	     7.550
  33.680         60.00	     8.485
  33.700         48.33	     7.616
  33.720         47.50	     7.550
  33.740         41.67	     7.071
  33.760         51.67	     7.874
  33.780         42.50	     7.141
  33.800         54.17	     8.062
  33.820         40.83	     7.000
  33.840         63.33	     8.718
  33.860         70.00	     9.165
  33.880         61.67	     8.602
  33.900         69.17	     9.110
  33.920         65.83	     8.888
  33.940         70.83	     9.220
  33.960         56.67	     8.246
  33.980         72.50	     9.327
  34.000         63.33	     8.718
  34.020         72.50	     9.327
  34.040         56.67	     8.246
  34.060         62.50	     8.660
  34.080         75.00	     9.487
  34.100         69.17	     9.110
  34.120         61.67	     8.602
  34.140         52.50	     7.937
  34.160         73.33	     9.381
  34.180         64.17	     8.775
  34.200         55.83	     8.185
  34.220         72.50	     9.327
  34.240         67.50	     9.000
  34.260         70.00	     9.165
  34.280         63.33	     8.718
  34.300         53.33	     8.000
  34.320         85.00	    10.100
  34.340         87.50	    10.247
  34.360        120.83	    12.042
  34.380        149.17	    13.379
  34.400        125.83	    12.288
  34.420        127.50	    12.369
  34.440        156.67	    13.711
  34.460        154.17	    13.601
  34.480        160.00	    13.856
  34.500        163.33	    14.000
  34.520        170.83	    14.318
  34.540        148.33	    13.342
  34.560        159.17	    13.820
  34.580        144.17	    13.153
  34.600        117.50	    11.874
  34.620        119.17	    11.958
  34.640        126.67	    12.329
  34.660        116.67	    11.832
  34.680        128.33	    12.410
  34.700         90.83	    10.440
  34.720         95.83	    10.724
  34.740         89.17	    10.344
  34.760        110.00	    11.489
  34.780        121.67	    12.083
  34.800        138.33	    12.884
  34.820        149.17	    13.379
  34.840        156.67	    13.711
  34.860        174.17	    14.457
  34.880        214.17	    16.031
  34.900        211.67	    15.937
  34.920        263.33	    17.776
  34.940        244.17	    17.117
  34.960        247.50	    17.234
  34.980        235.83	    16.823
  35.000        236.67	    16.852
  35.020        209.17	    15.843
  35.040        189.17	    15.067
  35.060        159.17	    13.820
  35.080        150.00	    13.416
  35.100        165.00	    14.071
  35.120        132.50	    12.610
  35.140        109.17	    11.446
  35.160        115.83	    11.790
  35.180        110.00	    11.489
  35.200         92.50	    10.536
  35.220         95.83	    10.724
  35.240         75.00	     9.487
  35.260         90.83	    10.440
  35.280         99.17	    10.909
  35.300         85.83	    10.149
  35.320         88.33	    10.296
  35.340         80.00	     9.798
  35.360         93.33	    10.583
  35.380         79.17	     9.747
  35.400         88.33	    10.296
  35.420         92.50	    10.536
  35.440        100.00	    10.954
  35.460        100.83	    11.000
  35.480        100.83	    11.000
  35.500         93.33	    10.583
  35.520         84.17	    10.050
  35.540         79.17	     9.747
  35.560         95.00	    10.677
  35.580         86.67	    10.198
  35.600         71.67	     9.274
  35.620         65.00	     8.832
  35.640         73.33	     9.381
  35.660         53.33	     8.000
  35.680         56.67	     8.246
  35.700         73.33	     9.381
  35.720         58.33	     8.367
  35.740         70.00	     9.165
  35.760         74.17	     9.434
  35.780         77.50	     9.644
  35.800         70.00	     9.165
  35.820         68.33	     9.055
  35.840         80.83	     9.849
  35.860         80.83	     9.849
  35.880         83.33	    10.000
  35.900         93.33	    10.583
  35.920         75.83	     9.539
  35.940         80.83	     9.849
  35.960         89.17	    10.344
  35.980        103.33	    11.136
  36.000         98.33	    10.863
  36.020        103.33	    11.136
  36.040        111.67	    11.576
  36.060        119.17	    11.958
  36.080         90.00	    10.392
  36.100        105.00	    11.225
  36.120        115.00	    11.747
  36.140         81.67	     9.899
  36.160         82.50	     9.950
  36.180         67.50	     9.000
  36.200         65.00	     8.832
  36.220         51.67	     7.874
  36.240         59.17	     8.426
  36.260         56.67	     8.246
  36.280         65.83	     8.888
  36.300         51.67	     7.874
  36.320         52.50	     7.937
  36.340         69.17	     9.110
  36.360         90.00	    10.392
  36.380         78.33	     9.695
  36.400         85.83	    10.149
  36.420         90.83	    10.440
  36.440         97.50	    10.817
  36.460        128.33	    12.410
  36.480        170.83	    14.318
  36.500        192.50	    15.199
  36.520        190.00	    15.100
  36.540        180.00	    14.697
  36.560        185.00	    14.900
  36.580        208.33	    15.811
  36.600        238.33	    16.912
  36.620        285.00	    18.493
  36.640        259.17	    17.635
  36.660        184.17	    14.866
  36.680        175.83	    14.526
  36.700        188.33	    15.033
  36.720        159.17	    13.820
  36.740        146.67	    13.266
  36.760        125.00	    12.247
  36.780        101.67	    11.045
  36.800         94.17	    10.630
  36.820         75.00	     9.487
  36.840         64.17	     8.775
  36.860         75.00	     9.487
  36.880         80.83	     9.849
  36.900         60.00	     8.485
  36.920         63.33	     8.718
  36.940         68.33	     9.055
  36.960         52.50	     7.937
  36.980         54.17	     8.062
  37.000         55.00	     8.124
  37.020         47.50	     7.550
  37.040         59.17	     8.426
  37.060         54.17	     8.062
  37.080         60.00	     8.485
  37.100         37.50	     6.708
  37.120         56.67	     8.246
  37.140         56.67	     8.246
  37.160         68.33	     9.055
  37.180         43.33	     7.211
  37.200         67.50	     9.000
  37.220         68.33	     9.055
  37.240         67.50	     9.000
  37.260         64.17	     8.775
  37.280         89.17	    10.344
  37.300         96.67	    10.770
  37.320         84.17	    10.050
  37.340        105.00	    11.225
  37.360         98.33	    10.863
  37.380         81.67	     9.899
  37.400        105.83	    11.269
  37.420         94.17	    10.630
  37.440         92.50	    10.536
  37.460        113.33	    11.662
  37.480        110.83	    11.533
  37.500        100.83	    11.000
  37.520        122.50	    12.124
  37.540        116.67	    11.832
  37.560        101.67	    11.045
  37.580        123.33	    12.166
  37.600        133.33	    12.649
  37.620        129.17	    12.450
  37.640        126.67	    12.329
  37.660        157.50	    13.748
  37.680        146.67	    13.266
  37.700        137.50	    12.845
  37.720        116.67	    11.832
  37.740        115.00	    11.747
  37.760        121.67	    12.083
  37.780        111.67	    11.576
  37.800        100.00	    10.954
  37.820         86.67	    10.198
  37.840         79.17	     9.747
  37.860         85.83	    10.149
  37.880         50.00	     7.746
  37.900         53.33	     8.000
  37.920         50.00	     7.746
  37.940         62.50	     8.660
  37.960         66.67	     8.944
  37.980        108.33	    11.402
  38.000        164.17	    14.036
  38.020        264.17	    17.804
  38.040        315.00	    19.442
  38.060        328.33	    19.849
  38.080        242.50	    17.059
  38.100        215.83	    16.093
  38.120        184.17	    14.866
  38.140        222.50	    16.340
  38.160        187.50	    15.000
  38.180        134.17	    12.689
  38.200         97.50	    10.817
  38.220         91.67	    10.488
  38.240         50.83	     7.810
  38.260         50.83	     7.810
  38.280         41.67	     7.071
  38.300         48.33	     7.616
  38.320         53.33	     8.000
  38.340         42.50	     7.141
  38.360         40.00	     6.928
  38.380         40.83	     7.000
  38.400         50.83	     7.810
  38.420         48.33	     7.616
  38.440         60.83	     8.544
  38.460         47.50	     7.550
  38.480         40.00	     6.928
  38.500         53.33	     8.000
  38.520         55.00	     8.124
  38.540         56.67	     8.246
  38.560         53.33	     8.000
  38.580         44.17	     7.280
  38.600         51.67	     7.874
  38.620         53.33	     8.000
  38.640         40.83	     7.000
  38.660         45.83	     7.416
  38.680         45.00	     7.348
  38.700         46.67	     7.483
  38.720         50.00	     7.746
  38.740         72.50	     9.327
  38.760         61.67	     8.602
  38.780         60.00	     8.485
  38.800         58.33	     8.367
  38.820         40.00	     6.928
  38.840         58.33	     8.367
  38.860         48.33	     7.616
  38.880         50.00	     7.746
  38.900         48.33	     7.616
  38.920         32.50	     6.245
  38.940         34.17	     6.403
  38.960         33.33	     6.325
  38.980         45.83	     7.416
  39.000         40.00	     6.928
  39.020         39.17	     6.856
  39.040         46.67	     7.483
  39.060         37.50	     6.708
  39.080         44.17	     7.280
  39.100         46.67	     7.483
  39.120         38.33	     6.782
  39.140         39.17	     6.856
  39.160         28.33	     5.831
  39.180         38.33	     6.782
  39.200         45.83	     7.416
  39.220         38.33	     6.782
  39.240         43.33	     7.211
  39.260         36.67	     6.633
  39.280         28.33	     5.831
  39.300         44.17	     7.280
  39.320         45.00	     7.348
  39.340         86.67	    10.198
  39.360         86.67	    10.198
  39.380         89.17	    10.344
  39.400        125.00	    12.247
  39.420        141.67	    13.038
  39.440        145.83	    13.229
  39.460        104.17	    11.180
  39.480        125.00	    12.247
  39.500        113.33	    11.662
  39.520        110.83	    11.533
  39.540        115.00	    11.747
  39.560         93.33	    10.583
  39.580         73.33	     9.381
  39.600         69.17	     9.110
  39.620         58.33	     8.367
  39.640         65.83	     8.888
  39.660         65.00	     8.832
  39.680         70.83	     9.220
  39.700         68.33	     9.055
  39.720         64.17	     8.775
  39.740         62.50	     8.660
  39.760         56.67	     8.246
  39.780         68.33	     9.055
  39.800         64.17	     8.775
  39.820         63.33	     8.718
  39.840         64.17	     8.775
  39.860         68.33	     9.055
  39.880         64.17	     8.775
  39.900         53.33	     8.000
  39.920         55.00	     8.124
  39.940         59.17	     8.426
  39.960         62.50	     8.660
  39.980         63.33	     8.718
  40.000         49.17	     7.681
  40.020         50.83	     7.810
  40.040         77.50	     9.644
  40.060         52.50	     7.937
  40.080         50.00	     7.746
  40.100         49.17	     7.681
  40.120         38.33	     6.782
  40.140         56.67	     8.246
  40.160         55.00	     8.124
  40.180         52.50	     7.937
  40.200         70.00	     9.165
  40.220         83.33	    10.000
  40.240        100.00	    10.954
  40.260        103.33	    11.136
  40.280         96.67	    10.770
  40.300         77.50	     9.644
  40.320         73.33	     9.381
  40.340         72.50	     9.327
  40.360         73.33	     9.381
  40.380         75.00	     9.487
  40.400         59.17	     8.426
  40.420         49.17	     7.681
  40.440         45.83	     7.416
  40.460         54.17	     8.062
  40.480         42.50	     7.141
  40.500         42.50	     7.141
  40.520         50.00	     7.746
  40.540         40.83	     7.000
  40.560         40.00	     6.928
  40.580         39.17	     6.856
  40.600         45.83	     7.416
  40.620         41.67	     7.071
  40.640         51.67	     7.874
  40.660         35.00	     6.481
  40.680         43.33	     7.211
  40.700         54.17	     8.062
  40.720         36.67	     6.633
  40.740         50.83	     7.810
  40.760         37.50	     6.708
  40.780         51.67	     7.874
  40.800         48.33	     7.616
  40.820         46.67	     7.483
  40.840         48.33	     7.616
  40.860         36.67	     6.633
  40.880         55.00	     8.124
  40.900         45.00	     7.348
  40.920         54.17	     8.062
  40.940         52.50	     7.937
  40.960         55.83	     8.185
  40.980         35.83	     6.557
  41.000         41.67	     7.071
  41.020         54.17	     8.062
  41.040         49.17	     7.681
  41.060         47.50	     7.550
  41.080         50.00	     7.746
  41.100         41.67	     7.071
  41.120         40.00	     6.928
  41.140         54.17	     8.062
  41.160         65.83	     8.888
  41.180         71.67	     9.274
  41.200         59.17	     8.426
  41.220         45.83	     7.416
  41.240         63.33	     8.718
  41.260         55.00	     8.124
  41.280         60.83	     8.544
  41.300         61.67	     8.602
  41.320         54.17	     8.062
  41.340         58.33	     8.367
  41.360         45.83	     7.416
  41.380         67.50	     9.000
  41.400         55.83	     8.185
  41.420         51.67	     7.874
  41.440         48.33	     7.616
  41.460         43.33	     7.211
  41.480         50.83	     7.810
  41.500         41.67	     7.071
  41.520         61.67	     8.602
  41.540         61.67	     8.602
  41.560         45.83	     7.416
  41.580         55.83	     8.185
  41.600         66.67	     8.944
  41.620         56.67	     8.246
  41.640         60.83	     8.544
  41.660         75.83	     9.539
  41.680         59.17	     8.426
  41.700         56.67	     8.246
  41.720         58.33	     8.367
  41.740         62.50	     8.660
  41.760         64.17	     8.775
  41.780         70.00	     9.165
  41.800         68.33	     9.055
  41.820         54.17	     8.062
  41.840         57.50	     8.307
  41.860         72.50	     9.327
  41.880         60.83	     8.544
  41.900         69.17	     9.110
  41.920         66.67	     8.944
  41.940         68.33	     9.055
  41.960         85.00	    10.100
  41.980         75.00	     9.487
  42.000         82.50	     9.950
  42.020         70.00	     9.165
  42.040         80.00	     9.798
  42.060         70.83	     9.220
  42.080         57.50	     8.307
  42.100         70.00	     9.165
  42.120         65.00	     8.832
  42.140         61.67	     8.602
  42.160         80.83	     9.849
  42.180         85.83	    10.149
  42.200         83.33	    10.000
  42.220         97.50	    10.817
  42.240         86.67	    10.198
  42.260        102.50	    11.091
  42.280         90.83	    10.440
  42.300         99.17	    10.909
  42.320        118.33	    11.916
  42.340        117.50	    11.874
  42.360        142.50	    13.077
  42.380        200.83	    15.524
  42.400        218.33	    16.186
  42.420        210.00	    15.875
  42.440        175.00	    14.491
  42.460        186.67	    14.967
  42.480        135.83	    12.767
  42.500        150.00	    13.416
  42.520        147.50	    13.304
  42.540        132.50	    12.610
  42.560        101.67	    11.045
  42.580         82.50	     9.950
  42.600         70.00	     9.165
  42.620         60.83	     8.544
  42.640         60.83	     8.544
  42.660         57.50	     8.307
  42.680         44.17	     7.280
  42.700         55.00	     8.124
  42.720         59.17	     8.426
  42.740         50.00	     7.746
  42.760         50.83	     7.810
  42.780         45.83	     7.416
  42.800         45.83	     7.416
  42.820         45.83	     7.416
  42.840         50.00	     7.746
  42.860         50.00	     7.746
  42.880         50.00	     7.746
  42.900         49.17	     7.681
  42.920         47.50	     7.550
  42.940         37.50	     6.708
  42.960         52.50	     7.937
  42.980         32.50	     6.245
  43.000         38.33	     6.782
  43.020         35.00	     6.481
  43.040         48.33	     7.616
  43.060         35.83	     6.557
  43.080         44.17	     7.280
  43.100         33.33	     6.325
  43.120         43.33	     7.211
  43.140         50.83	     7.810
  43.160         31.67	     6.164
  43.180         39.17	     6.856
  43.200         35.00	     6.481
  43.220         45.00	     7.348
  43.240         40.00	     6.928
  43.260         32.50	     6.245
  43.280         27.50	     5.745
  43.300         40.83	     7.000
  43.320         31.67	     6.164
  43.340         33.33	     6.325
  43.360         43.33	     7.211
  43.380         42.50	     7.141
  43.400         45.83	     7.416
  43.420         35.00	     6.481
  43.440         48.33	     7.616
  43.460         45.83	     7.416
  43.480         49.17	     7.681
  43.500         63.33	     8.718
  43.520         58.33	     8.367
  43.540         74.17	     9.434
  43.560         51.67	     7.874
  43.580         67.50	     9.000
  43.600         55.00	     8.124
  43.620         64.17	     8.775
  43.640         60.00	     8.485
  43.660         60.00	     8.485
  43.680         53.33	     8.000
  43.700         48.33	     7.616
  43.720         50.00	     7.746
  43.740         63.33	     8.718
  43.760         50.00	     7.746
  43.780         51.67	     7.874
  43.800         45.83	     7.416
  43.820         36.67	     6.633
  43.840         55.00	     8.124
  43.860         45.00	     7.348
  43.880         39.17	     6.856
  43.900         37.50	     6.708
  43.920         41.67	     7.071
  43.940         60.83	     8.544
  43.960         50.83	     7.810
  43.980         34.17	     6.403
  44.000         58.33	     8.367
  44.020         55.83	     8.185
  44.040         47.50	     7.550
  44.060         50.83	     7.810
  44.080         55.00	     8.124
  44.100         58.33	     8.367
  44.120         57.50	     8.307
  44.140         76.67	     9.592
  44.160         92.50	    10.536
  44.180        138.33	    12.884
  44.200        213.33	    16.000
  44.220        229.17	    16.583
  44.240        242.50	    17.059
  44.260        195.83	    15.330
  44.280        145.00	    13.191
  44.300        147.50	    13.304
  44.320        122.50	    12.124
  44.340        167.50	    14.177
  44.360        128.33	    12.410
  44.380        110.83	    11.533
  44.400         87.50	    10.247
  44.420         63.33	     8.718
  44.440         62.50	     8.660
  44.460         56.67	     8.246
  44.480         50.00	     7.746
  44.500         48.33	     7.616
  44.520         45.00	     7.348
  44.540         45.00	     7.348
  44.560         40.83	     7.000
  44.580         37.50	     6.708
  44.600         50.83	     7.810
  44.620         48.33	     7.616
  44.640         56.67	     8.246
  44.660         40.83	     7.000
  44.680         45.00	     7.348
  44.700         41.67	     7.071
  44.720         32.50	     6.245
  44.740         60.00	     8.485
  44.760         48.33	     7.616
  44.780         62.50	     8.660
  44.800         55.83	     8.185
  44.820         61.67	     8.602
  44.840         75.83	     9.539
  44.860         70.00	     9.165
  44.880         70.00	     9.165
  44.900         75.00	     9.487
  44.920         69.17	     9.110
  44.940         73.33	     9.381
  44.960         89.17	    10.344
  44.980         94.17	    10.630
  45.000         99.17	    10.909
  45.020         94.17	    10.630
  45.040         75.83	     9.539
  45.060         90.00	    10.392
  45.080         96.67	    10.770
  45.100         93.33	    10.583
  45.120         77.50	     9.644
  45.140         87.50	    10.247
  45.160        105.83	    11.269
  45.180         70.83	     9.220
  45.200        109.17	    11.446
  45.220         92.50	    10.536
  45.240         95.83	    10.724
  45.260        100.00	    10.954
  45.280        111.67	    11.576
  45.300        124.17	    12.207
  45.320        125.00	    12.247
  45.340        137.50	    12.845
  45.360        146.67	    13.266
  45.380        145.00	    13.191
  45.400        189.17	    15.067
  45.420        218.33	    16.186
  45.440        246.67	    17.205
  45.460        260.83	    17.692
  45.480        294.17	    18.788
  45.500        320.00	    19.596
  45.520        326.67	    19.799
  45.540        316.67	    19.494
  45.560        354.17	    20.616
  45.580        320.83	    19.621
  45.600        272.50	    18.083
  45.620        271.67	    18.055
  45.640        213.33	    16.000
  45.660        201.67	    15.556
  45.680        210.00	    15.875
  45.700        142.50	    13.077
  45.720        165.83	    14.107
  45.740        172.50	    14.387
  45.760        154.17	    13.601
  45.780        135.83	    12.767
  45.800        118.33	    11.916
  45.820        108.33	    11.402
  45.840         80.83	     9.849
  45.860         95.00	    10.677
  45.880         77.50	     9.644
  45.900         84.17	    10.050
  45.920         85.00	    10.100
  45.940         81.67	     9.899
  45.960         80.00	     9.798
  45.980         75.83	     9.539
  46.000         81.67	     9.899
  46.020         77.50	     9.644
  46.040         78.33	     9.695
  46.060         75.00	     9.487
  46.080         62.50	     8.660
  46.100         74.17	     9.434
  46.120         63.33	     8.718
  46.140         71.67	     9.274
  46.160         70.00	     9.165
  46.180         58.33	     8.367
  46.200         65.83	     8.888
  46.220         57.50	     8.307
  46.240         45.83	     7.416
  46.260         48.33	     7.616
  46.280         54.17	     8.062
  46.300         45.00	     7.348
  46.320         37.50	     6.708
  46.340         45.00	     7.348
  46.360         55.00	     8.124
  46.380         44.17	     7.280
  46.400         60.83	     8.544
  46.420         35.83	     6.557
  46.440         43.33	     7.211
  46.460         36.67	     6.633
  46.480         46.67	     7.483
  46.500         48.33	     7.616
  46.520         44.17	     7.280
  46.540         46.67	     7.483
  46.560         40.00	     6.928
  46.580         55.00	     8.124
  46.600         52.50	     7.937
  46.620         39.17	     6.856
  46.640         55.00	     8.124
  46.660         48.33	     7.616
  46.680         30.83	     6.083
  46.700         45.00	     7.348
  46.720         33.33	     6.325
  46.740         39.17	     6.856
  46.760         33.33	     6.325
  46.780         40.83	     7.000
  46.800         36.67	     6.633
  46.820         40.00	     6.928
  46.840         42.50	     7.141
  46.860         35.00	     6.481
  46.880         41.67	     7.071
  46.900         34.17	     6.403
  46.920         29.17	     5.916
  46.940         43.33	     7.211
  46.960         35.83	     6.557
  46.980         40.00	     6.928
  47.000         41.67	     7.071
  47.020         50.00	     7.746
  47.040         51.67	     7.874
  47.060         47.50	     7.550
  47.080         49.17	     7.681
  47.100         70.00	     9.165
  47.120         88.33	    10.296
  47.140         64.17	     8.775
  47.160         56.67	     8.246
  47.180         62.50	     8.660
  47.200         51.67	     7.874
  47.220         62.50	     8.660
  47.240         60.83	     8.544
  47.260         55.83	     8.185
  47.280         57.50	     8.307
  47.300         41.67	     7.071
  47.320         35.00	     6.481
  47.340         39.17	     6.856
  47.360         39.17	     6.856
  47.380         45.83	     7.416
  47.400         23.33	     5.292
  47.420         34.17	     6.403
  47.440         36.67	     6.633
  47.460         38.33	     6.782
  47.480         30.00	     6.000
  47.500         32.50	     6.245
  47.520         25.00	     5.477
  47.540         35.00	     6.481
  47.560         34.17	     6.403
  47.580         42.50	     7.141
  47.600         49.17	     7.681
  47.620         30.83	     6.083
  47.640         28.33	     5.831
  47.660         30.00	     6.000
  47.680         30.83	     6.083
  47.700         30.83	     6.083
  47.720         26.67	     5.657
  47.740         35.83	     6.557
  47.760         27.50	     5.745
  47.780         30.00	     6.000
  47.800         38.33	     6.782
  47.820         34.17	     6.403
  47.840         27.50	     5.745
  47.860         38.33	     6.782
  47.880         33.33	     6.325
  47.900         49.17	     7.681
  47.920         41.67	     7.071
  47.940         49.17	     7.681
  47.960         41.67	     7.071
  47.980         64.17	     8.775
  48.000         45.00	     7.348
  48.020         59.17	     8.426
  48.040         40.83	     7.000
  48.060         57.50	     8.307
  48.080         55.83	     8.185
  48.100         75.83	     9.539
  48.120         75.83	     9.539
  48.140         82.50	     9.950
  48.160         81.67	     9.899
  48.180         57.50	     8.307
  48.200         55.00	     8.124
  48.220         70.83	     9.220
  48.240         59.17	     8.426
  48.260         61.67	     8.602
  48.280         52.50	     7.937
  48.300         70.83	     9.220
  48.320         71.67	     9.274
  48.340         55.00	     8.124
  48.360         55.00	     8.124
  48.380         49.17	     7.681
  48.400         60.83	     8.544
  48.420         42.50	     7.141
  48.440         34.17	     6.403
  48.460         45.83	     7.416
  48.480         44.17	     7.280
  48.500         40.83	     7.000
  48.520         35.83	     6.557
  48.540         35.00	     6.481
  48.560         51.67	     7.874
  48.580         46.67	     7.483
  48.600         35.00	     6.481
  48.620         51.67	     7.874
  48.640         36.67	     6.633
  48.660         49.17	     7.681
  48.680         51.67	     7.874
  48.700         38.33	     6.782
  48.720         59.17	     8.426
  48.740         48.33	     7.616
  48.760         37.50	     6.708
  48.780         37.50	     6.708
  48.800         43.33	     7.211
  48.820         44.17	     7.280
  48.840         44.17	     7.280
  48.860         25.00	     5.477
  48.880         36.67	     6.633
  48.900         31.67	     6.164
  48.920         37.50	     6.708
  48.940         30.83	     6.083
  48.960         32.50	     6.245
  48.980         45.83	     7.416
  49.000         37.50	     6.708
  49.020         41.67	     7.071
  49.040         30.00	     6.000
  49.060         40.83	     7.000
  49.080         26.67	     5.657
  49.100         29.17	     5.916
  49.120         40.83	     7.000
  49.140         58.33	     8.367
  49.160         64.17	     8.775
  49.180         56.67	     8.246
  49.200         47.50	     7.550
  49.220         37.50	     6.708
  49.240         38.33	     6.782
  49.260         35.00	     6.481
  49.280         49.17	     7.681
  49.300         44.17	     7.280
  49.320         52.50	     7.937
  49.340         37.50	     6.708
  49.360         42.50	     7.141
  49.380         32.50	     6.245
  49.400         40.00	     6.928
  49.420         41.67	     7.071
  49.440         43.33	     7.211
  49.460         40.83	     7.000
  49.480         37.50	     6.708
  49.500         40.00	     6.928
  49.520         37.50	     6.708
  49.540         39.17	     6.856
  49.560         33.33	     6.325
  49.580         37.50	     6.708
  49.600         51.67	     7.874
  49.620         35.83	     6.557
  49.640         36.67	     6.633
  49.660         45.00	     7.348
  49.680         42.50	     7.141
  49.700         55.00	     8.124
  49.720         46.67	     7.483
  49.740         62.50	     8.660
  49.760         55.00	     8.124
  49.780         58.33	     8.367
  49.800         75.00	     9.487
  49.820         67.50	     9.000
  49.840         60.00	     8.485
  49.860         75.83	     9.539
  49.880         75.83	     9.539
  49.900         68.33	     9.055
  49.920         82.50	     9.950
  49.940         85.83	    10.149
  49.960         76.67	     9.592
  49.980         79.17	     9.747
  50.000         79.17	     9.747
  50.020        136.67	    12.806
  50.040        117.50	    11.874
  50.060        205.83	    15.716
  50.080        290.00	    18.655
  50.100        353.33	    20.591
  50.120        345.00	    20.347
  50.140        307.50	    19.209
  50.160        190.00	    15.100
  50.180        139.17	    12.923
  50.200        149.17	    13.379
  50.220        180.83	    14.731
  50.240        170.00	    14.283
  50.260        187.50	    15.000
  50.280        165.00	    14.071
  50.300        106.67	    11.314
  50.320         69.17	     9.110
  50.340         51.67	     7.874
  50.360         47.50	     7.550
  50.380         45.00	     7.348
  50.400         42.50	     7.141
  50.420         38.33	     6.782
  50.440         41.67	     7.071
  50.460         40.00	     6.928
  50.480         35.00	     6.481
  50.500         50.00	     7.746
  50.520         49.17	     7.681
  50.540         53.33	     8.000
  50.560         49.17	     7.681
  50.580         50.83	     7.810
  50.600         50.00	     7.746
  50.620         50.00	     7.746
  50.640         54.17	     8.062
  50.660         36.67	     6.633
  50.680         44.17	     7.280
  50.700         44.17	     7.280
  50.720         53.33	     8.000
  50.740         35.83	     6.557
  50.760         47.50	     7.550
  50.780         40.83	     7.000
  50.800         39.17	     6.856
  50.820         37.50	     6.708
  50.840         34.17	     6.403
  50.860         30.00	     6.000
  50.880         20.00	     4.899
  50.900         23.33	     5.292
  50.920         30.00	     6.000
  50.940         31.67	     6.164
  50.960         35.83	     6.557
  50.980         36.67	     6.633
  51.000         31.67	     6.164
  51.020         25.83	     5.568
  51.040         40.83	     7.000
  51.060         37.50	     6.708
  51.080         61.67	     8.602
  51.100         60.00	     8.485
  51.120         61.67	     8.602
  51.140         55.00	     8.124
  51.160         50.83	     7.810
  51.180         44.17	     7.280
  51.200         40.00	     6.928
  51.220         55.83	     8.185
  51.240         59.17	     8.426
  51.260         55.00	     8.124
  51.280         56.67	     8.246
  51.300         55.83	     8.185
  51.320         53.33	     8.000
  51.340         39.17	     6.856
  51.360         35.83	     6.557
  51.380         34.17	     6.403
  51.400         39.17	     6.856
  51.420         39.17	     6.856
  51.440         40.00	     6.928
  51.460         30.83	     6.083
  51.480         41.67	     7.071
  51.500         45.00	     7.348
  51.520         35.00	     6.481
  51.540         26.67	     5.657
  51.560         25.00	     5.477
  51.580         40.00	     6.928
  51.600         23.33	     5.292
  51.620         30.00	     6.000
  51.640         18.33	     4.690
  51.660         26.67	     5.657
  51.680         20.83	     5.000
  51.700         26.67	     5.657
  51.720         24.17	     5.385
  51.740         24.17	     5.385
  51.760         28.33	     5.831
  51.780         33.33	     6.325
  51.800         31.67	     6.164
  51.820         31.67	     6.164
  51.840         25.83	     5.568
  51.860         26.67	     5.657
  51.880         24.17	     5.385
  51.900         20.00	     4.899
  51.920         30.83	     6.083
  51.940         33.33	     6.325
  51.960         26.67	     5.657
  51.980         31.67	     6.164
  52.000         31.67	     6.164
  52.020         38.33	     6.782
  52.040         32.50	     6.245
  52.060         35.00	     6.481
  52.080         41.67	     7.071
  52.100         42.50	     7.141
  52.120         31.67	     6.164
  52.140         31.67	     6.164
  52.160         35.00	     6.481
  52.180         35.83	     6.557
  52.200         36.67	     6.633
  52.220         37.50	     6.708
  52.240         43.33	     7.211
  52.260         48.33	     7.616
  52.280         54.17	     8.062
  52.300         57.50	     8.307
  52.320         42.50	     7.141
  52.340         43.33	     7.211
  52.360         44.17	     7.280
  52.380         42.50	     7.141
  52.400         46.67	     7.483
  52.420         43.33	     7.211
  52.440         47.50	     7.550
  52.460         40.83	     7.000
  52.480         47.50	     7.550
  52.500         44.17	     7.280
  52.520         35.00	     6.481
  52.540         37.50	     6.708
  52.560         34.17	     6.403
  52.580         30.00	     6.000
  52.600         44.17	     7.280
  52.620         41.67	     7.071
  52.640         51.67	     7.874
  52.660         38.33	     6.782
  52.680         46.67	     7.483
  52.700         43.33	     7.211
  52.720         45.00	     7.348
  52.740         32.50	     6.245
  52.760         45.83	     7.416
  52.780         48.33	     7.616
  52.800         47.50	     7.550
  52.820         43.33	     7.211
  52.840         55.83	     8.185
  52.860         53.33	     8.000
  52.880         47.50	     7.550
  52.900         63.33	     8.718
  52.920         58.33	     8.367
  52.940         69.17	     9.110
  52.960         61.67	     8.602
  52.980         61.67	     8.602
  53.000         64.17	     8.775
  53.020         55.00	     8.124
  53.040         66.67	     8.944
  53.060         55.83	     8.185
  53.080         55.83	     8.185
  53.100         70.00	     9.165
  53.120         75.00	     9.487
  53.140         60.83	     8.544
  53.160         64.17	     8.775
  53.180         52.50	     7.937
  53.200         41.67	     7.071
  53.220         69.17	     9.110
  53.240         65.00	     8.832
  53.260         51.67	     7.874
  53.280         52.50	     7.937
  53.300         50.83	     7.810
  53.320         38.33	     6.782
  53.340         49.17	     7.681
  53.360         40.00	     6.928
  53.380         47.50	     7.550
  53.400         37.50	     6.708
  53.420         53.33	     8.000
  53.440         50.83	     7.810
  53.460         38.33	     6.782
  53.480         48.33	     7.616
  53.500         35.00	     6.481
  53.520         36.67	     6.633
  53.540         42.50	     7.141
  53.560         27.50	     5.745
  53.580         37.50	     6.708
  53.600         51.67	     7.874
  53.620         42.50	     7.141
  53.640         41.67	     7.071
  53.660         29.17	     5.916
  53.680         40.83	     7.000
  53.700         45.83	     7.416
  53.720         33.33	     6.325
  53.740         45.00	     7.348
  53.760         38.33	     6.782
  53.780         46.67	     7.483
  53.800         41.67	     7.071
  53.820         27.50	     5.745
  53.840         40.83	     7.000
  53.860         43.33	     7.211
  53.880         38.33	     6.782
  53.900         25.83	     5.568
  53.920         33.33	     6.325
  53.940         40.83	     7.000
  53.960         47.50	     7.550
  53.980         30.00	     6.000
  54.000         30.83	     6.083
  54.020         30.00	     6.000
  54.040         30.00	     6.000
  54.060         26.67	     5.657
  54.080         35.83	     6.557
  54.100         32.50	     6.245
  54.120         31.67	     6.164
  54.140         45.00	     7.348
  54.160         41.67	     7.071
  54.180         38.33	     6.782
  54.200         40.83	     7.000
  54.220         35.00	     6.481
  54.240         40.00	     6.928
  54.260         41.67	     7.071
  54.280         52.50	     7.937
  54.300         49.17	     7.681
  54.320         49.17	     7.681
  54.340         47.50	     7.550
  54.360         45.83	     7.416
  54.380         35.00	     6.481
  54.400         55.83	     8.185
  54.420         46.67	     7.483
  54.440         50.00	     7.746
  54.460         32.50	     6.245
  54.480         47.50	     7.550
  54.500         51.67	     7.874
  54.520         49.17	     7.681
  54.540         67.50	     9.000
  54.560         40.00	     6.928
  54.580         45.00	     7.348
  54.600         42.50	     7.141
  54.620         41.67	     7.071
  54.640         45.83	     7.416
  54.660         59.17	     8.426
  54.680         49.17	     7.681
  54.700         47.50	     7.550
  54.720         50.00	     7.746
  54.740         49.17	     7.681
  54.760         65.83	     8.888
  54.780         84.17	    10.050
  54.800        104.17	    11.180
  54.820        105.83	    11.269
  54.840        103.33	    11.136
  54.860         99.17	    10.909
  54.880         85.00	    10.100
  54.900         66.67	     8.944
  54.920         82.50	     9.950
  54.940         65.00	     8.832
  54.960         85.83	    10.149
  54.980         73.33	     9.381
  55.000         80.00	     9.798
  55.020         70.00	     9.165
  55.040         72.50	     9.327
  55.060         50.00	     7.746
  55.080         67.50	     9.000
  55.100         68.33	     9.055
  55.120         70.00	     9.165
  55.140         59.17	     8.426
  55.160         59.17	     8.426
  55.180         79.17	     9.747
  55.200         73.33	     9.381
  55.220         76.67	     9.592
  55.240         81.67	     9.899
  55.260         91.67	    10.488
  55.280         83.33	    10.000
  55.300        110.83	    11.533
  55.320        103.33	    11.136
  55.340         90.83	    10.440
  55.360         79.17	     9.747
  55.380         74.17	     9.434
  55.400         66.67	     8.944
  55.420         60.83	     8.544
  55.440         74.17	     9.434
  55.460         81.67	     9.899
  55.480         72.50	     9.327
  55.500         66.67	     8.944
  55.520         65.83	     8.888
  55.540         65.00	     8.832
  55.560         57.50	     8.307
  55.580         70.00	     9.165
  55.600         65.83	     8.888
  55.620         89.17	    10.344
  55.640         97.50	    10.817
  55.660         85.00	    10.100
  55.680         77.50	     9.644
  55.700         99.17	    10.909
  55.720         84.17	    10.050
  55.740        118.33	    11.916
  55.760        138.33	    12.884
  55.780        108.33	    11.402
  55.800        130.83	    12.530
  55.820        110.00	    11.489
  55.840        118.33	    11.916
  55.860        125.83	    12.288
  55.880        127.50	    12.369
  55.900         96.67	    10.770
  55.920         95.83	    10.724
  55.940         88.33	    10.296
  55.960         95.83	    10.724
  55.980         79.17	     9.747
  56.000         80.83	     9.849
  56.020         80.83	     9.849
  56.040         63.33	     8.718
  56.060         62.50	     8.660
  56.080         60.00	     8.485
  56.100         45.83	     7.416
  56.120         52.50	     7.937
  56.140         48.33	     7.616
  56.160         46.67	     7.483
  56.180         34.17	     6.403
  56.200         41.67	     7.071
  56.220         47.50	     7.550
  56.240         45.00	     7.348
  56.260         44.17	     7.280
  56.280         49.17	     7.681
  56.300         52.50	     7.937
  56.320         41.67	     7.071
  56.340         52.50	     7.937
  56.360         44.17	     7.280
  56.380         51.67	     7.874
  56.400         50.83	     7.810
  56.420         38.33	     6.782
  56.440         52.50	     7.937
  56.460         38.33	     6.782
  56.480         40.83	     7.000
  56.500         40.83	     7.000
  56.520         29.17	     5.916
  56.540         47.50	     7.550
  56.560         55.00	     8.124
  56.580         39.17	     6.856
  56.600         40.83	     7.000
  56.620         30.83	     6.083
  56.640         42.50	     7.141
  56.660         22.50	     5.196
  56.680         39.17	     6.856
  56.700         44.17	     7.280
  56.720         43.33	     7.211
  56.740         43.33	     7.211
  56.760         30.00	     6.000
  56.780         40.00	     6.928
  56.800         34.17	     6.403
  56.820         35.00	     6.481
  56.840         45.00	     7.348
  56.860         35.00	     6.481
  56.880         35.00	     6.481
  56.900         44.17	     7.280
  56.920         44.17	     7.280
  56.940         44.17	     7.280
  56.960         35.00	     6.481
  56.980         46.67	     7.483
  57.000         53.33	     8.000
  57.020         45.00	     7.348
  57.040         40.83	     7.000
  57.060         33.33	     6.325
  57.080         40.83	     7.000
  57.100         39.17	     6.856
  57.120         43.33	     7.211
  57.140         40.83	     7.000
  57.160         43.33	     7.211
  57.180         39.17	     6.856
  57.200         43.33	     7.211
  57.220         42.50	     7.141
  57.240         42.50	     7.141
  57.260         35.00	     6.481
  57.280         45.00	     7.348
  57.300         43.33	     7.211
  57.320         40.00	     6.928
  57.340         55.83	     8.185
  57.360         35.83	     6.557
  57.380         32.50	     6.245
  57.400         50.83	     7.810
  57.420         44.17	     7.280
  57.440         55.00	     8.124
  57.460         42.50	     7.141
  57.480         48.33	     7.616
  57.500         40.83	     7.000
  57.520         26.67	     5.657
  57.540         45.00	     7.348
  57.560         33.33	     6.325
  57.580         35.00	     6.481
  57.600         38.33	     6.782
  57.620         37.50	     6.708
  57.640         35.83	     6.557
  57.660         31.67	     6.164
  57.680         38.33	     6.782
  57.700         34.17	     6.403
  57.720         37.50	     6.708
  57.740         42.50	     7.141
  57.760         33.33	     6.325
  57.780         32.50	     6.245
  57.800         31.67	     6.164
  57.820         35.83	     6.557
  57.840         35.83	     6.557
  57.860         37.50	     6.708
  57.880         25.83	     5.568
  57.900         35.00	     6.481
  57.920         35.83	     6.557
  57.940         33.33	     6.325
  57.960         27.50	     5.745
  57.980         31.67	     6.164
  58.000         43.33	     7.211
  58.020         41.67	     7.071
  58.040         35.83	     6.557
  58.060         32.50	     6.245
  58.080         41.67	     7.071
  58.100         48.33	     7.616
  58.120         54.17	     8.062
  58.140         45.83	     7.416
  58.160         34.17	     6.403
  58.180         32.50	     6.245
  58.200         35.83	     6.557
  58.220         30.00	     6.000
  58.240         29.17	     5.916
  58.260         54.17	     8.062
  58.280         45.00	     7.348
  58.300         31.67	     6.164
  58.320         39.17	     6.856
  58.340         42.50	     7.141
  58.360         35.00	     6.481
  58.380         36.67	     6.633
  58.400         39.17	     6.856
  58.420         37.50	     6.708
  58.440         48.33	     7.616
  58.460         46.67	     7.483
  58.480         37.50	     6.708
  58.500         54.17	     8.062
  58.520         42.50	     7.141
  58.540         42.50	     7.141
  58.560         34.17	     6.403
  58.580         50.83	     7.810
  58.600         54.17	     8.062
  58.620         42.50	     7.141
  58.640         48.33	     7.616
  58.660         55.83	     8.185
  58.680         39.17	     6.856
  58.700         51.67	     7.874
  58.720         53.33	     8.000
  58.740         71.67	     9.274
  58.760         66.67	     8.944
  58.780         64.17	     8.775
  58.800         53.33	     8.000
  58.820         54.17	     8.062
  58.840         60.83	     8.544
  58.860         74.17	     9.434
  58.880         60.83	     8.544
  58.900         56.67	     8.246
  58.920         53.33	     8.000
  58.940         72.50	     9.327
  58.960         60.83	     8.544
  58.980         50.83	     7.810
  59.000         76.67	     9.592
  59.020         49.17	     7.681
  59.040         57.50	     8.307
  59.060         70.83	     9.220
  59.080         55.00	     8.124
  59.100         57.50	     8.307
  59.120         56.67	     8.246
  59.140         57.50	     8.307
  59.160         57.50	     8.307
  59.180         51.67	     7.874
  59.200         51.67	     7.874
  59.220         64.17	     8.775
  59.240         52.50	     7.937
  59.260         49.17	     7.681
  59.280         59.17	     8.426
  59.300         57.50	     8.307
  59.320         60.00	     8.485
  59.340         46.67	     7.483
  59.360         56.67	     8.246
  59.380         51.67	     7.874
  59.400         44.17	     7.280
  59.420         49.17	     7.681
  59.440         43.33	     7.211
  59.460         45.00	     7.348
  59.480         49.17	     7.681
  59.500         50.83	     7.810
  59.520         54.17	     8.062
  59.540         49.17	     7.681
  59.560         57.50	     8.307
  59.580         45.00	     7.348
  59.600         71.67	     9.274
  59.620         55.00	     8.124
  59.640         45.00	     7.348
  59.660         59.17	     8.426
  59.680         51.67	     7.874
  59.700         49.17	     7.681
  59.720         64.17	     8.775
  59.740         60.83	     8.544
  59.760         68.33	     9.055
  59.780         60.00	     8.485
  59.800         76.67	     9.592
  59.820         66.67	     8.944
  59.840        102.50	    11.091
  59.860        113.33	    11.662
  59.880        140.00	    12.961
  59.900        199.17	    15.460
  59.920        207.50	    15.780
  59.940        205.83	    15.716
  59.960        171.67	    14.353
  59.980        146.67	    13.266
  60.000         99.17	    10.909
  60.020        111.67	    11.576
  60.040        105.83	    11.269
  60.060        122.50	    12.124
  60.080        120.83	    12.042
  60.100        124.17	    12.207
  60.120        115.83	    11.790
  60.140         83.33	    10.000
  60.160         71.67	     9.274
  60.180         63.33	     8.718
  60.200         70.00	     9.165
  60.220         58.33	     8.367
  60.240         65.00	     8.832
  60.260         50.83	     7.810
  60.280         55.83	     8.185
  60.300         41.67	     7.071
  60.320         45.00	     7.348
  60.340         45.00	     7.348
  60.360         45.00	     7.348
  60.380         40.83	     7.000
  60.400         35.83	     6.557
  60.420         45.00	     7.348
  60.440         43.33	     7.211
  60.460         48.33	     7.616
  60.480         49.17	     7.681
  60.500         54.17	     8.062
  60.520         44.17	     7.280
  60.540         62.50	     8.660
  60.560         51.67	     7.874
  60.580         44.17	     7.280
  60.600         46.67	     7.483
  60.620         48.33	     7.616
  60.640         50.83	     7.810
  60.660         62.50	     8.660
  60.680         49.17	     7.681
  60.700         74.17	     9.434
  60.720         65.83	     8.888
  60.740         63.33	     8.718
  60.760         83.33	    10.000
  60.780         74.17	     9.434
  60.800         77.50	     9.644
  60.820         73.33	     9.381
  60.840         78.33	     9.695
  60.860         75.83	     9.539
  60.880         67.50	     9.000
  60.900         61.67	     8.602
  60.920         79.17	     9.747
  60.940         68.33	     9.055
  60.960         58.33	     8.367
  60.980         66.67	     8.944
  61.000         73.33	     9.381
  61.020         79.17	     9.747
  61.040         60.83	     8.544
  61.060         70.83	     9.220
  61.080         63.33	     8.718
  61.100         60.83	     8.544
  61.120         61.67	     8.602
  61.140         58.33	     8.367
  61.160         62.50	     8.660
  61.180         63.33	     8.718
  61.200         52.50	     7.937
  61.220         65.83	     8.888
  61.240         53.33	     8.000
  61.260         50.83	     7.810
  61.280         55.00	     8.124
  61.300         60.83	     8.544
  61.320         55.83	     8.185
  61.340         60.00	     8.485
  61.360         80.83	     9.849
  61.380         65.83	     8.888
  61.400         70.83	     9.220
  61.420        101.67	    11.045
  61.440         87.50	    10.247
  61.460         79.17	     9.747
  61.480        105.00	    11.225
  61.500         95.00	    10.677
  61.520         78.33	     9.695
  61.540        111.67	    11.576
  61.560         75.83	     9.539
  61.580         79.17	     9.747
  61.600         98.33	    10.863
  61.620         80.00	     9.798
  61.640         80.00	     9.798
  61.660         96.67	    10.770
  61.680         73.33	     9.381
  61.700         88.33	    10.296
  61.720         82.50	     9.950
  61.740         81.67	     9.899
  61.760         79.17	     9.747
  61.780         72.50	     9.327
  61.800         56.67	     8.246
  61.820         56.67	     8.246
  61.840         63.33	     8.718
  61.860         61.67	     8.602
  61.880         57.50	     8.307
  61.900         63.33	     8.718
  61.920         53.33	     8.000
  61.940         62.50	     8.660
  61.960         51.67	     7.874
  61.980         49.17	     7.681
  62.000         54.17	     8.062
  62.020         42.50	     7.141
  62.040         51.67	     7.874
  62.060         42.50	     7.141
  62.080         41.67	     7.071
  62.100         34.17	     6.403
  62.120         30.83	     6.083
  62.140         40.00	     6.928
  62.160         40.83	     7.000
  62.180         41.67	     7.071
  62.200         35.83	     6.557
  62.220         34.17	     6.403
  62.240         45.00	     7.348
  62.260         34.17	     6.403
  62.280         60.00	     8.485
  62.300         29.17	     5.916
  62.320         40.00	     6.928
  62.340         35.83	     6.557
  62.360         34.17	     6.403
  62.380         33.33	     6.325
  62.400         32.50	     6.245
  62.420         31.67	     6.164
  62.440         40.83	     7.000
  62.460         35.00	     6.481
  62.480         39.17	     6.856
  62.500         33.33	     6.325
  62.520         31.67	     6.164
  62.540         39.17	     6.856
  62.560         30.83	     6.083
  62.580         34.17	     6.403
  62.600         44.17	     7.280
  62.620         38.33	     6.782
  62.640         29.17	     5.916
  62.660         37.50	     6.708
  62.680         40.00	     6.928
  62.700         45.83	     7.416
  62.720         30.83	     6.083
  62.740         31.67	     6.164
  62.760         33.33	     6.325
  62.780         40.00	     6.928
  62.800         43.33	     7.211
  62.820         39.17	     6.856
  62.840         37.50	     6.708
  62.860         40.00	     6.928
  62.880         34.17	     6.403
  62.900         52.50	     7.937
  62.920         40.00	     6.928
  62.940         31.67	     6.164
  62.960         41.67	     7.071
  62.980         30.83	     6.083
  63.000         37.50	     6.708
  63.020         38.33	     6.782
  63.040         41.67	     7.071
  63.060         40.83	     7.000
  63.080         39.17	     6.856
  63.100         44.17	     7.280
  63.120         37.50	     6.708
  63.140         33.33	     6.325
  63.160         39.17	     6.856
  63.180         28.33	     5.831
  63.200         32.50	     6.245
  63.220         35.00	     6.481
  63.240         30.83	     6.083
  63.260         40.00	     6.928
  63.280         33.33	     6.325
  63.300         37.50	     6.708
  63.320         36.67	     6.633
  63.340         32.50	     6.245
  63.360         35.83	     6.557
  63.380         43.33	     7.211
  63.400         37.50	     6.708
  63.420         43.33	     7.211
  63.440         47.50	     7.550
  63.460         49.17	     7.681
  63.480         40.00	     6.928
  63.500         34.17	     6.403
  63.520         49.17	     7.681
  63.540         40.83	     7.000
  63.560         42.50	     7.141
  63.580         38.33	     6.782
  63.600         39.17	     6.856
  63.620         36.67	     6.633
  63.640         40.83	     7.000
  63.660         44.17	     7.280
  63.680         35.83	     6.557
  63.700         51.67	     7.874
  63.720         42.50	     7.141
  63.740         40.00	     6.928
  63.760         52.50	     7.937
  63.780         36.67	     6.633
  63.800         43.33	     7.211
  63.820         51.67	     7.874
  63.840         40.00	     6.928
  63.860         45.00	     7.348
  63.880         55.83	     8.185
  63.900         50.00	     7.746
  63.920         47.50	     7.550
  63.940         55.00	     8.124
  63.960         63.33	     8.718
  63.980         66.67	     8.944
  64.000         62.50	     8.660
  64.020         80.00	     9.798
  64.040         69.17	     9.110
  64.060         64.17	     8.775
  64.080         65.00	     8.832
  64.100         68.33	     9.055
  64.120         80.83	     9.849
  64.140         82.50	     9.950
  64.160         72.50	     9.327
  64.180         80.83	     9.849
  64.200         68.33	     9.055
  64.220         65.83	     8.888
  64.240         75.00	     9.487
  64.260         65.83	     8.888
  64.280         77.50	     9.644
  64.300         89.17	    10.344
  64.320        150.83	    13.454
  64.340        223.33	    16.371
  64.360        319.17	    19.570
  64.380        320.00	    19.596
  64.400        246.67	    17.205
  64.420        163.33	    14.000
  64.440        141.67	    13.038
  64.460         93.33	    10.583
  64.480         85.83	    10.149
  64.500        107.50	    11.358
  64.520        135.00	    12.728
  64.540        175.00	    14.491
  64.560        159.17	    13.820
  64.580        126.67	    12.329
  64.600         99.17	    10.909
  64.620         79.17	     9.747
  64.640         69.17	     9.110
  64.660         72.50	     9.327
  64.680         61.67	     8.602
  64.700         64.17	     8.775
  64.720         72.50	     9.327
  64.740         64.17	     8.775
  64.760         67.50	     9.000
  64.780         73.33	     9.381
  64.800         60.83	     8.544
  64.820         46.67	     7.483
  64.840         48.33	     7.616
  64.860         45.83	     7.416
  64.880         49.17	     7.681
  64.900         46.67	     7.483
  64.920         51.67	     7.874
  64.940         51.67	     7.874
  64.960         35.00	     6.481
  64.980         42.50	     7.141
  65.000         42.50	     7.141
