
Filename:
	C:\Program Files\Thermo Electron\WinXRD\Datafiles\F_HERMAN\GEO\GG_5_SFT.raw

File Created:
	October 13, 2020 - 10:28 AM

Specimen Id:
	GG5 SFT

Specimen Name:
	

Specimen Description:
	

Comment:
Scan Type: 2Theta Scan
Start Angle: 3 deg.
Stop Angle: 65 deg.
Num Points: 3101
Step Size: 0.02 deg.
Scan Rate: 1.000000
Scan Mode: Continuous
Wavelength: 1.540562
\Kalpha1: 1.540562	\Kalpha2: 1.544390	\Kbeta: 1.392218

Optics:
		Detector:
			 Type: Fixed Slits
		Tube: 
			 Type: Fixed Slits


Datas:
 Pos [deg]       Rate [CPS]      ESD [-]

Range 1 ---> Iteration 1
   3.000        307.50	    19.209
   3.020        335.83	    20.075
   3.040        281.67	    18.385
   3.060        289.17	    18.628
   3.080        310.83	    19.313
   3.100        285.83	    18.520
   3.120        294.17	    18.788
   3.140        266.67	    17.889
   3.160        277.50	    18.248
   3.180        309.17	    19.261
   3.200        298.33	    18.921
   3.220        280.83	    18.358
   3.240        249.17	    17.292
   3.260        274.17	    18.138
   3.280        259.17	    17.635
   3.300        271.67	    18.055
   3.320        270.83	    18.028
   3.340        312.50	    19.365
   3.360        264.17	    17.804
   3.380        260.00	    17.664
   3.400        257.50	    17.578
   3.420        244.17	    17.117
   3.440        256.67	    17.550
   3.460        250.83	    17.349
   3.480        225.00	    16.432
   3.500        260.83	    17.692
   3.520        241.67	    17.029
   3.540        256.67	    17.550
   3.560        245.00	    17.146
   3.580        268.33	    17.944
   3.600        275.00	    18.166
   3.620        236.67	    16.852
   3.640        270.00	    18.000
   3.660        239.17	    16.941
   3.680        263.33	    17.776
   3.700        243.33	    17.088
   3.720        251.67	    17.378
   3.740        234.17	    16.763
   3.760        218.33	    16.186
   3.780        235.83	    16.823
   3.800        246.67	    17.205
   3.820        235.00	    16.793
   3.840        240.83	    17.000
   3.860        230.00	    16.613
   3.880        241.67	    17.029
   3.900        221.67	    16.310
   3.920        191.67	    15.166
   3.940        237.50	    16.882
   3.960        207.50	    15.780
   3.980        215.00	    16.062
   4.000        207.50	    15.780
   4.020        205.83	    15.716
   4.040        205.83	    15.716
   4.060        205.83	    15.716
   4.080        206.67	    15.748
   4.100        230.83	    16.643
   4.120        240.00	    16.971
   4.140        192.50	    15.199
   4.160        220.00	    16.248
   4.180        205.00	    15.684
   4.200        224.17	    16.401
   4.220        200.83	    15.524
   4.240        210.83	    15.906
   4.260        193.33	    15.232
   4.280        192.50	    15.199
   4.300        213.33	    16.000
   4.320        206.67	    15.748
   4.340        188.33	    15.033
   4.360        187.50	    15.000
   4.380        194.17	    15.264
   4.400        211.67	    15.937
   4.420        191.67	    15.166
   4.440        171.67	    14.353
   4.460        198.33	    15.427
   4.480        171.67	    14.353
   4.500        184.17	    14.866
   4.520        174.17	    14.457
   4.540        180.00	    14.697
   4.560        175.83	    14.526
   4.580        174.17	    14.457
   4.600        165.83	    14.107
   4.620        177.50	    14.595
   4.640        190.83	    15.133
   4.660        177.50	    14.595
   4.680        180.00	    14.697
   4.700        166.67	    14.142
   4.720        160.83	    13.892
   4.740        150.00	    13.416
   4.760        171.67	    14.353
   4.780        162.50	    13.964
   4.800        182.50	    14.799
   4.820        143.33	    13.115
   4.840        185.00	    14.900
   4.860        171.67	    14.353
   4.880        160.83	    13.892
   4.900        166.67	    14.142
   4.920        163.33	    14.000
   4.940        165.83	    14.107
   4.960        161.67	    13.928
   4.980        174.17	    14.457
   5.000        164.17	    14.036
   5.020        152.50	    13.528
   5.040        151.67	    13.491
   5.060        145.83	    13.229
   5.080        170.00	    14.283
   5.100        153.33	    13.565
   5.120        168.33	    14.213
   5.140        149.17	    13.379
   5.160        133.33	    12.649
   5.180        133.33	    12.649
   5.200        170.83	    14.318
   5.220        150.83	    13.454
   5.240        144.17	    13.153
   5.260        170.00	    14.283
   5.280        166.67	    14.142
   5.300        168.33	    14.213
   5.320        142.50	    13.077
   5.340        155.83	    13.675
   5.360        138.33	    12.884
   5.380        165.00	    14.071
   5.400        146.67	    13.266
   5.420        130.83	    12.530
   5.440        138.33	    12.884
   5.460        145.83	    13.229
   5.480        144.17	    13.153
   5.500        154.17	    13.601
   5.520        137.50	    12.845
   5.540        120.83	    12.042
   5.560        153.33	    13.565
   5.580        144.17	    13.153
   5.600        154.17	    13.601
   5.620        121.67	    12.083
   5.640        136.67	    12.806
   5.660        127.50	    12.369
   5.680        148.33	    13.342
   5.700        138.33	    12.884
   5.720        140.83	    13.000
   5.740        138.33	    12.884
   5.760        130.00	    12.490
   5.780        149.17	    13.379
   5.800        120.83	    12.042
   5.820        145.83	    13.229
   5.840        129.17	    12.450
   5.860        136.67	    12.806
   5.880        150.83	    13.454
   5.900        138.33	    12.884
   5.920        148.33	    13.342
   5.940        122.50	    12.124
   5.960        120.83	    12.042
   5.980        140.83	    13.000
   6.000        139.17	    12.923
   6.020        152.50	    13.528
   6.040        121.67	    12.083
   6.060        143.33	    13.115
   6.080        146.67	    13.266
   6.100        159.17	    13.820
   6.120        156.67	    13.711
   6.140        144.17	    13.153
   6.160        141.67	    13.038
   6.180        158.33	    13.784
   6.200        165.83	    14.107
   6.220        142.50	    13.077
   6.240        130.83	    12.530
   6.260        142.50	    13.077
   6.280        167.50	    14.177
   6.300        183.33	    14.832
   6.320        160.83	    13.892
   6.340        160.83	    13.892
   6.360        154.17	    13.601
   6.380        150.83	    13.454
   6.400        167.50	    14.177
   6.420        172.50	    14.387
   6.440        170.00	    14.283
   6.460        168.33	    14.213
   6.480        178.33	    14.629
   6.500        184.17	    14.866
   6.520        207.50	    15.780
   6.540        185.83	    14.933
   6.560        220.00	    16.248
   6.580        186.67	    14.967
   6.600        170.00	    14.283
   6.620        168.33	    14.213
   6.640        151.67	    13.491
   6.660        126.67	    12.329
   6.680        136.67	    12.806
   6.700        132.50	    12.610
   6.720        120.83	    12.042
   6.740        140.00	    12.961
   6.760        136.67	    12.806
   6.780        131.67	    12.570
   6.800        107.50	    11.358
   6.820        126.67	    12.329
   6.840        129.17	    12.450
   6.860        111.67	    11.576
   6.880        111.67	    11.576
   6.900        111.67	    11.576
   6.920        115.83	    11.790
   6.940        109.17	    11.446
   6.960        120.00	    12.000
   6.980        132.50	    12.610
   7.000        106.67	    11.314
   7.020        111.67	    11.576
   7.040        122.50	    12.124
   7.060        127.50	    12.369
   7.080        111.67	    11.576
   7.100        104.17	    11.180
   7.120        115.00	    11.747
   7.140        110.00	    11.489
   7.160        109.17	    11.446
   7.180        122.50	    12.124
   7.200        113.33	    11.662
   7.220        106.67	    11.314
   7.240        104.17	    11.180
   7.260         99.17	    10.909
   7.280        108.33	    11.402
   7.300        107.50	    11.358
   7.320        109.17	    11.446
   7.340        125.00	    12.247
   7.360        112.50	    11.619
   7.380        112.50	    11.619
   7.400        106.67	    11.314
   7.420        112.50	    11.619
   7.440        107.50	    11.358
   7.460         94.17	    10.630
   7.480        114.17	    11.705
   7.500         90.00	    10.392
   7.520         99.17	    10.909
   7.540        110.83	    11.533
   7.560         91.67	    10.488
   7.580         97.50	    10.817
   7.600         84.17	    10.050
   7.620        115.83	    11.790
   7.640        115.83	    11.790
   7.660         94.17	    10.630
   7.680        104.17	    11.180
   7.700        114.17	    11.705
   7.720        102.50	    11.091
   7.740         97.50	    10.817
   7.760        107.50	    11.358
   7.780         96.67	    10.770
   7.800        104.17	    11.180
   7.820        101.67	    11.045
   7.840         91.67	    10.488
   7.860        112.50	    11.619
   7.880         98.33	    10.863
   7.900         91.67	    10.488
   7.920         93.33	    10.583
   7.940         81.67	     9.899
   7.960        115.83	    11.790
   7.980        106.67	    11.314
   8.000         89.17	    10.344
   8.020         93.33	    10.583
   8.040        110.00	    11.489
   8.060        120.00	    12.000
   8.080         98.33	    10.863
   8.100        100.83	    11.000
   8.120         99.17	    10.909
   8.140         82.50	     9.950
   8.160        101.67	    11.045
   8.180        110.00	    11.489
   8.200         73.33	     9.381
   8.220         99.17	    10.909
   8.240         90.83	    10.440
   8.260        100.83	    11.000
   8.280        114.17	    11.705
   8.300        101.67	    11.045
   8.320         87.50	    10.247
   8.340         85.83	    10.149
   8.360         99.17	    10.909
   8.380        111.67	    11.576
   8.400         95.00	    10.677
   8.420         99.17	    10.909
   8.440         80.00	     9.798
   8.460         86.67	    10.198
   8.480        106.67	    11.314
   8.500         98.33	    10.863
   8.520        110.00	    11.489
   8.540         98.33	    10.863
   8.560        102.50	    11.091
   8.580        111.67	    11.576
   8.600        104.17	    11.180
   8.620         96.67	    10.770
   8.640         85.83	    10.149
   8.660         89.17	    10.344
   8.680        117.50	    11.874
   8.700        107.50	    11.358
   8.720        105.00	    11.225
   8.740        115.83	    11.790
   8.760        130.00	    12.490
   8.780        127.50	    12.369
   8.800        114.17	    11.705
   8.820        138.33	    12.884
   8.840        137.50	    12.845
   8.860        121.67	    12.083
   8.880        139.17	    12.923
   8.900        144.17	    13.153
   8.920        153.33	    13.565
   8.940        153.33	    13.565
   8.960        179.17	    14.663
   8.980        191.67	    15.166
   9.000        177.50	    14.595
   9.020        235.00	    16.793
   9.040        262.50	    17.748
   9.060        242.50	    17.059
   9.080        302.50	    19.053
   9.100        305.00	    19.131
   9.120        310.83	    19.313
   9.140        350.83	    20.518
   9.160        420.83	    22.472
   9.180        398.33	    21.863
   9.200        431.67	    22.760
   9.220        350.83	    20.518
   9.240        275.83	    18.193
   9.260        215.83	    16.093
   9.280        155.00	    13.638
   9.300        114.17	    11.705
   9.320        120.00	    12.000
   9.340        112.50	    11.619
   9.360         96.67	    10.770
   9.380        124.17	    12.207
   9.400        106.67	    11.314
   9.420         90.00	    10.392
   9.440        108.33	    11.402
   9.460        107.50	    11.358
   9.480        127.50	    12.369
   9.500        101.67	    11.045
   9.520         96.67	    10.770
   9.540         94.17	    10.630
   9.560         89.17	    10.344
   9.580         93.33	    10.583
   9.600         77.50	     9.644
   9.620         79.17	     9.747
   9.640         75.83	     9.539
   9.660         83.33	    10.000
   9.680         85.83	    10.149
   9.700         72.50	     9.327
   9.720         82.50	     9.950
   9.740         89.17	    10.344
   9.760         76.67	     9.592
   9.780         71.67	     9.274
   9.800         89.17	    10.344
   9.820         83.33	    10.000
   9.840         84.17	    10.050
   9.860         81.67	     9.899
   9.880         78.33	     9.695
   9.900         63.33	     8.718
   9.920         62.50	     8.660
   9.940         70.83	     9.220
   9.960         90.83	    10.440
   9.980         69.17	     9.110
  10.000         80.83	     9.849
  10.020         68.33	     9.055
  10.040         58.33	     8.367
  10.060         68.33	     9.055
  10.080         84.17	    10.050
  10.100         75.00	     9.487
  10.120         65.00	     8.832
  10.140         80.83	     9.849
  10.160         60.00	     8.485
  10.180         76.67	     9.592
  10.200         60.00	     8.485
  10.220         70.00	     9.165
  10.240         65.00	     8.832
  10.260         59.17	     8.426
  10.280         63.33	     8.718
  10.300         64.17	     8.775
  10.320         56.67	     8.246
  10.340         55.83	     8.185
  10.360         55.83	     8.185
  10.380         55.83	     8.185
  10.400         55.83	     8.185
  10.420         57.50	     8.307
  10.440         55.83	     8.185
  10.460         64.17	     8.775
  10.480         55.83	     8.185
  10.500         80.00	     9.798
  10.520         70.83	     9.220
  10.540         60.83	     8.544
  10.560         56.67	     8.246
  10.580         63.33	     8.718
  10.600         62.50	     8.660
  10.620         70.83	     9.220
  10.640         59.17	     8.426
  10.660         67.50	     9.000
  10.680         70.83	     9.220
  10.700         65.83	     8.888
  10.720         75.00	     9.487
  10.740         86.67	    10.198
  10.760         82.50	     9.950
  10.780         73.33	     9.381
  10.800         99.17	    10.909
  10.820         90.00	    10.392
  10.840        100.00	    10.954
  10.860         88.33	    10.296
  10.880         80.83	     9.849
  10.900         65.83	     8.888
  10.920         74.17	     9.434
  10.940         50.00	     7.746
  10.960         55.83	     8.185
  10.980         48.33	     7.616
  11.000         41.67	     7.071
  11.020         60.83	     8.544
  11.040         48.33	     7.616
  11.060         55.83	     8.185
  11.080         58.33	     8.367
  11.100         61.67	     8.602
  11.120         49.17	     7.681
  11.140         57.50	     8.307
  11.160         52.50	     7.937
  11.180         46.67	     7.483
  11.200         52.50	     7.937
  11.220         55.00	     8.124
  11.240         57.50	     8.307
  11.260         50.00	     7.746
  11.280         51.67	     7.874
  11.300         53.33	     8.000
  11.320         40.00	     6.928
  11.340         53.33	     8.000
  11.360         74.17	     9.434
  11.380         53.33	     8.000
  11.400         53.33	     8.000
  11.420         45.83	     7.416
  11.440         61.67	     8.602
  11.460         59.17	     8.426
  11.480         64.17	     8.775
  11.500         51.67	     7.874
  11.520         50.00	     7.746
  11.540         54.17	     8.062
  11.560         60.00	     8.485
  11.580         54.17	     8.062
  11.600         53.33	     8.000
  11.620         48.33	     7.616
  11.640         55.00	     8.124
  11.660         56.67	     8.246
  11.680         46.67	     7.483
  11.700         60.00	     8.485
  11.720         46.67	     7.483
  11.740         34.17	     6.403
  11.760         70.83	     9.220
  11.780         46.67	     7.483
  11.800         47.50	     7.550
  11.820         47.50	     7.550
  11.840         60.00	     8.485
  11.860         56.67	     8.246
  11.880         49.17	     7.681
  11.900         55.00	     8.124
  11.920         50.83	     7.810
  11.940         67.50	     9.000
  11.960         44.17	     7.280
  11.980         59.17	     8.426
  12.000         48.33	     7.616
  12.020         44.17	     7.280
  12.040         52.50	     7.937
  12.060         41.67	     7.071
  12.080         47.50	     7.550
  12.100         64.17	     8.775
  12.120         51.67	     7.874
  12.140         60.00	     8.485
  12.160         50.83	     7.810
  12.180         51.67	     7.874
  12.200         52.50	     7.937
  12.220         50.00	     7.746
  12.240         44.17	     7.280
  12.260         67.50	     9.000
  12.280         67.50	     9.000
  12.300         88.33	    10.296
  12.320         51.67	     7.874
  12.340         73.33	     9.381
  12.360         94.17	    10.630
  12.380        101.67	    11.045
  12.400        107.50	    11.358
  12.420        120.00	    12.000
  12.440        151.67	    13.491
  12.460        155.00	    13.638
  12.480        210.00	    15.875
  12.500        222.50	    16.340
  12.520        229.17	    16.583
  12.540        231.67	    16.673
  12.560        190.83	    15.133
  12.580        151.67	    13.491
  12.600        141.67	    13.038
  12.620        120.00	    12.000
  12.640        143.33	    13.115
  12.660        175.00	    14.491
  12.680        180.00	    14.697
  12.700        213.33	    16.000
  12.720        215.83	    16.093
  12.740        214.17	    16.031
  12.760        217.50	    16.155
  12.780        299.17	    18.947
  12.800        308.33	    19.235
  12.820        313.33	    19.391
  12.840        289.17	    18.628
  12.860        280.83	    18.358
  12.880        205.83	    15.716
  12.900        133.33	    12.649
  12.920         95.83	    10.724
  12.940         76.67	     9.592
  12.960         66.67	     8.944
  12.980         58.33	     8.367
  13.000         69.17	     9.110
  13.020         63.33	     8.718
  13.040         61.67	     8.602
  13.060         71.67	     9.274
  13.080         62.50	     8.660
  13.100         48.33	     7.616
  13.120         67.50	     9.000
  13.140         55.00	     8.124
  13.160         40.00	     6.928
  13.180         53.33	     8.000
  13.200         45.00	     7.348
  13.220         40.83	     7.000
  13.240         49.17	     7.681
  13.260         40.83	     7.000
  13.280         46.67	     7.483
  13.300         55.83	     8.185
  13.320         35.83	     6.557
  13.340         52.50	     7.937
  13.360         47.50	     7.550
  13.380         48.33	     7.616
  13.400         35.00	     6.481
  13.420         47.50	     7.550
  13.440         43.33	     7.211
  13.460         43.33	     7.211
  13.480         53.33	     8.000
  13.500         49.17	     7.681
  13.520         45.83	     7.416
  13.540         52.50	     7.937
  13.560         55.00	     8.124
  13.580         50.83	     7.810
  13.600         44.17	     7.280
  13.620         53.33	     8.000
  13.640         51.67	     7.874
  13.660         48.33	     7.616
  13.680         31.67	     6.164
  13.700         52.50	     7.937
  13.720         49.17	     7.681
  13.740         45.00	     7.348
  13.760         41.67	     7.071
  13.780         46.67	     7.483
  13.800         49.17	     7.681
  13.820         50.83	     7.810
  13.840         49.17	     7.681
  13.860         58.33	     8.367
  13.880         48.33	     7.616
  13.900         44.17	     7.280
  13.920         44.17	     7.280
  13.940         33.33	     6.325
  13.960         45.83	     7.416
  13.980         53.33	     8.000
  14.000         45.00	     7.348
  14.020         49.17	     7.681
  14.040         48.33	     7.616
  14.060         49.17	     7.681
  14.080         44.17	     7.280
  14.100         57.50	     8.307
  14.120         64.17	     8.775
  14.140         56.67	     8.246
  14.160         75.00	     9.487
  14.180         81.67	     9.899
  14.200         67.50	     9.000
  14.220         67.50	     9.000
  14.240         50.00	     7.746
  14.260         64.17	     8.775
  14.280         34.17	     6.403
  14.300         46.67	     7.483
  14.320         38.33	     6.782
  14.340         36.67	     6.633
  14.360         38.33	     6.782
  14.380         49.17	     7.681
  14.400         40.83	     7.000
  14.420         40.83	     7.000
  14.440         52.50	     7.937
  14.460         39.17	     6.856
  14.480         35.00	     6.481
  14.500         39.17	     6.856
  14.520         36.67	     6.633
  14.540         41.67	     7.071
  14.560         35.00	     6.481
  14.580         38.33	     6.782
  14.600         41.67	     7.071
  14.620         34.17	     6.403
  14.640         35.00	     6.481
  14.660         40.83	     7.000
  14.680         40.00	     6.928
  14.700         39.17	     6.856
  14.720         29.17	     5.916
  14.740         35.00	     6.481
  14.760         35.00	     6.481
  14.780         36.67	     6.633
  14.800         32.50	     6.245
  14.820         30.00	     6.000
  14.840         37.50	     6.708
  14.860         44.17	     7.280
  14.880         38.33	     6.782
  14.900         35.83	     6.557
  14.920         34.17	     6.403
  14.940         34.17	     6.403
  14.960         44.17	     7.280
  14.980         36.67	     6.633
  15.000         32.50	     6.245
  15.020         34.17	     6.403
  15.040         31.67	     6.164
  15.060         40.83	     7.000
  15.080         36.67	     6.633
  15.100         36.67	     6.633
  15.120         31.67	     6.164
  15.140         49.17	     7.681
  15.160         27.50	     5.745
  15.180         30.00	     6.000
  15.200         44.17	     7.280
  15.220         39.17	     6.856
  15.240         40.83	     7.000
  15.260         54.17	     8.062
  15.280         40.00	     6.928
  15.300         40.83	     7.000
  15.320         40.00	     6.928
  15.340         40.83	     7.000
  15.360         30.83	     6.083
  15.380         42.50	     7.141
  15.400         47.50	     7.550
  15.420         23.33	     5.292
  15.440         35.83	     6.557
  15.460         34.17	     6.403
  15.480         37.50	     6.708
  15.500         41.67	     7.071
  15.520         33.33	     6.325
  15.540         30.83	     6.083
  15.560         33.33	     6.325
  15.580         40.83	     7.000
  15.600         30.83	     6.083
  15.620         25.00	     5.477
  15.640         38.33	     6.782
  15.660         34.17	     6.403
  15.680         40.00	     6.928
  15.700         34.17	     6.403
  15.720         35.83	     6.557
  15.740         33.33	     6.325
  15.760         24.17	     5.385
  15.780         37.50	     6.708
  15.800         35.83	     6.557
  15.820         38.33	     6.782
  15.840         43.33	     7.211
  15.860         33.33	     6.325
  15.880         35.00	     6.481
  15.900         34.17	     6.403
  15.920         34.17	     6.403
  15.940         40.00	     6.928
  15.960         36.67	     6.633
  15.980         35.83	     6.557
  16.000         41.67	     7.071
  16.020         43.33	     7.211
  16.040         45.83	     7.416
  16.060         41.67	     7.071
  16.080         38.33	     6.782
  16.100         36.67	     6.633
  16.120         37.50	     6.708
  16.140         45.83	     7.416
  16.160         49.17	     7.681
  16.180         43.33	     7.211
  16.200         35.83	     6.557
  16.220         27.50	     5.745
  16.240         28.33	     5.831
  16.260         27.50	     5.745
  16.280         35.83	     6.557
  16.300         30.83	     6.083
  16.320         30.83	     6.083
  16.340         37.50	     6.708
  16.360         33.33	     6.325
  16.380         31.67	     6.164
  16.400         28.33	     5.831
  16.420         32.50	     6.245
  16.440         32.50	     6.245
  16.460         34.17	     6.403
  16.480         43.33	     7.211
  16.500         38.33	     6.782
  16.520         34.17	     6.403
  16.540         33.33	     6.325
  16.560         30.83	     6.083
  16.580         30.83	     6.083
  16.600         35.83	     6.557
  16.620         31.67	     6.164
  16.640         30.00	     6.000
  16.660         31.67	     6.164
  16.680         25.00	     5.477
  16.700         34.17	     6.403
  16.720         32.50	     6.245
  16.740         29.17	     5.916
  16.760         30.83	     6.083
  16.780         27.50	     5.745
  16.800         29.17	     5.916
  16.820         30.00	     6.000
  16.840         29.17	     5.916
  16.860         35.00	     6.481
  16.880         38.33	     6.782
  16.900         28.33	     5.831
  16.920         29.17	     5.916
  16.940         35.83	     6.557
  16.960         31.67	     6.164
  16.980         37.50	     6.708
  17.000         31.67	     6.164
  17.020         29.17	     5.916
  17.040         32.50	     6.245
  17.060         31.67	     6.164
  17.080         25.83	     5.568
  17.100         27.50	     5.745
  17.120         35.00	     6.481
  17.140         42.50	     7.141
  17.160         27.50	     5.745
  17.180         32.50	     6.245
  17.200         36.67	     6.633
  17.220         33.33	     6.325
  17.240         34.17	     6.403
  17.260         31.67	     6.164
  17.280         45.00	     7.348
  17.300         32.50	     6.245
  17.320         24.17	     5.385
  17.340         35.00	     6.481
  17.360         30.00	     6.000
  17.380         31.67	     6.164
  17.400         33.33	     6.325
  17.420         26.67	     5.657
  17.440         35.83	     6.557
  17.460         35.00	     6.481
  17.480         32.50	     6.245
  17.500         35.83	     6.557
  17.520         39.17	     6.856
  17.540         32.50	     6.245
  17.560         40.83	     7.000
  17.580         34.17	     6.403
  17.600         26.67	     5.657
  17.620         27.50	     5.745
  17.640         35.83	     6.557
  17.660         37.50	     6.708
  17.680         39.17	     6.856
  17.700         30.00	     6.000
  17.720         40.00	     6.928
  17.740         46.67	     7.483
  17.760         33.33	     6.325
  17.780         40.83	     7.000
  17.800         36.67	     6.633
  17.820         30.00	     6.000
  17.840         39.17	     6.856
  17.860         47.50	     7.550
  17.880         38.33	     6.782
  17.900         38.33	     6.782
  17.920         59.17	     8.426
  17.940         65.83	     8.888
  17.960         74.17	     9.434
  17.980         85.00	    10.100
  18.000        103.33	    11.136
  18.020        110.83	    11.533
  18.040        125.83	    12.288
  18.060        157.50	    13.748
  18.080        159.17	    13.820
  18.100        197.50	    15.395
  18.120        201.67	    15.556
  18.140        205.83	    15.716
  18.160        175.00	    14.491
  18.180        150.83	    13.454
  18.200        108.33	    11.402
  18.220         86.67	    10.198
  18.240         71.67	     9.274
  18.260         60.00	     8.485
  18.280         61.67	     8.602
  18.300         60.00	     8.485
  18.320         47.50	     7.550
  18.340         48.33	     7.616
  18.360         47.50	     7.550
  18.380         33.33	     6.325
  18.400         50.83	     7.810
  18.420         39.17	     6.856
  18.440         36.67	     6.633
  18.460         31.67	     6.164
  18.480         35.00	     6.481
  18.500         51.67	     7.874
  18.520         40.00	     6.928
  18.540         35.00	     6.481
  18.560         53.33	     8.000
  18.580         35.00	     6.481
  18.600         34.17	     6.403
  18.620         45.83	     7.416
  18.640         45.00	     7.348
  18.660         57.50	     8.307
  18.680         53.33	     8.000
  18.700         59.17	     8.426
  18.720         47.50	     7.550
  18.740         53.33	     8.000
  18.760         47.50	     7.550
  18.780         40.00	     6.928
  18.800         35.83	     6.557
  18.820         48.33	     7.616
  18.840         45.83	     7.416
  18.860         55.83	     8.185
  18.880         62.50	     8.660
  18.900         49.17	     7.681
  18.920         63.33	     8.718
  18.940         77.50	     9.644
  18.960         71.67	     9.274
  18.980         69.17	     9.110
  19.000         78.33	     9.695
  19.020         90.00	    10.392
  19.040        117.50	    11.874
  19.060        117.50	    11.874
  19.080        130.83	    12.530
  19.100        123.33	    12.166
  19.120        142.50	    13.077
  19.140        121.67	    12.083
  19.160        105.83	    11.269
  19.180         81.67	     9.899
  19.200         76.67	     9.592
  19.220         65.83	     8.888
  19.240         51.67	     7.874
  19.260         41.67	     7.071
  19.280         38.33	     6.782
  19.300         46.67	     7.483
  19.320         37.50	     6.708
  19.340         51.67	     7.874
  19.360         47.50	     7.550
  19.380         50.00	     7.746
  19.400         61.67	     8.602
  19.420         46.67	     7.483
  19.440         60.83	     8.544
  19.460         49.17	     7.681
  19.480         56.67	     8.246
  19.500         59.17	     8.426
  19.520         50.00	     7.746
  19.540         66.67	     8.944
  19.560         61.67	     8.602
  19.580         50.00	     7.746
  19.600         52.50	     7.937
  19.620         50.00	     7.746
  19.640         53.33	     8.000
  19.660         50.83	     7.810
  19.680         40.83	     7.000
  19.700         57.50	     8.307
  19.720         42.50	     7.141
  19.740         45.00	     7.348
  19.760         44.17	     7.280
  19.780         47.50	     7.550
  19.800         43.33	     7.211
  19.820         49.17	     7.681
  19.840         58.33	     8.367
  19.860         44.17	     7.280
  19.880         62.50	     8.660
  19.900         63.33	     8.718
  19.920         75.00	     9.487
  19.940         85.00	    10.100
  19.960         80.83	     9.849
  19.980        108.33	    11.402
  20.000         98.33	    10.863
  20.020        100.00	    10.954
  20.040        100.83	    11.000
  20.060         88.33	    10.296
  20.080        112.50	    11.619
  20.100        103.33	    11.136
  20.120        117.50	    11.874
  20.140        133.33	    12.649
  20.160        122.50	    12.124
  20.180        131.67	    12.570
  20.200        128.33	    12.410
  20.220        105.00	    11.225
  20.240         94.17	    10.630
  20.260         81.67	     9.899
  20.280         75.83	     9.539
  20.300         55.00	     8.124
  20.320         60.00	     8.485
  20.340         52.50	     7.937
  20.360         50.83	     7.810
  20.380         48.33	     7.616
  20.400         50.83	     7.810
  20.420         55.83	     8.185
  20.440         53.33	     8.000
  20.460         65.00	     8.832
  20.480         50.83	     7.810
  20.500         50.83	     7.810
  20.520         59.17	     8.426
  20.540         55.83	     8.185
  20.560         50.83	     7.810
  20.580         51.67	     7.874
  20.600         45.83	     7.416
  20.620         45.83	     7.416
  20.640         50.83	     7.810
  20.660         45.00	     7.348
  20.680         36.67	     6.633
  20.700         44.17	     7.280
  20.720         45.00	     7.348
  20.740         35.00	     6.481
  20.760         46.67	     7.483
  20.780         45.83	     7.416
  20.800         50.83	     7.810
  20.820         46.67	     7.483
  20.840         52.50	     7.937
  20.860         54.17	     8.062
  20.880         65.83	     8.888
  20.900         61.67	     8.602
  20.920         70.00	     9.165
  20.940         64.17	     8.775
  20.960         62.50	     8.660
  20.980         82.50	     9.950
  21.000         85.00	    10.100
  21.020         97.50	    10.817
  21.040         90.00	    10.392
  21.060        102.50	    11.091
  21.080        119.17	    11.958
  21.100        150.83	    13.454
  21.120        177.50	    14.595
  21.140        206.67	    15.748
  21.160        254.17	    17.464
  21.180        208.33	    15.811
  21.200        211.67	    15.937
  21.220        173.33	    14.422
  21.240        137.50	    12.845
  21.260        118.33	    11.916
  21.280        103.33	    11.136
  21.300         80.83	     9.849
  21.320         74.17	     9.434
  21.340         56.67	     8.246
  21.360         67.50	     9.000
  21.380         75.00	     9.487
  21.400         55.00	     8.124
  21.420         60.83	     8.544
  21.440         48.33	     7.616
  21.460         41.67	     7.071
  21.480         52.50	     7.937
  21.500         41.67	     7.071
  21.520         58.33	     8.367
  21.540         50.83	     7.810
  21.560         34.17	     6.403
  21.580         40.83	     7.000
  21.600         43.33	     7.211
  21.620         36.67	     6.633
  21.640         39.17	     6.856
  21.660         47.50	     7.550
  21.680         36.67	     6.633
  21.700         40.83	     7.000
  21.720         55.00	     8.124
  21.740         44.17	     7.280
  21.760         45.83	     7.416
  21.780         52.50	     7.937
  21.800         49.17	     7.681
  21.820         45.00	     7.348
  21.840         55.00	     8.124
  21.860         57.50	     8.307
  21.880         61.67	     8.602
  21.900         56.67	     8.246
  21.920         69.17	     9.110
  21.940         53.33	     8.000
  21.960         49.17	     7.681
  21.980         50.83	     7.810
  22.000         42.50	     7.141
  22.020         56.67	     8.246
  22.040         42.50	     7.141
  22.060         43.33	     7.211
  22.080         40.00	     6.928
  22.100         46.67	     7.483
  22.120         70.00	     9.165
  22.140         62.50	     8.660
  22.160         85.00	    10.100
  22.180         91.67	    10.488
  22.200        133.33	    12.649
  22.220        136.67	    12.806
  22.240        120.00	    12.000
  22.260        115.83	    11.790
  22.280        136.67	    12.806
  22.300        163.33	    14.000
  22.320        191.67	    15.166
  22.340        198.33	    15.427
  22.360        215.00	    16.062
  22.380        180.83	    14.731
  22.400        149.17	    13.379
  22.420        100.00	    10.954
  22.440         82.50	     9.950
  22.460         79.17	     9.747
  22.480         55.83	     8.185
  22.500         55.83	     8.185
  22.520         40.83	     7.000
  22.540         44.17	     7.280
  22.560         52.50	     7.937
  22.580         44.17	     7.280
  22.600         55.00	     8.124
  22.620         38.33	     6.782
  22.640         45.83	     7.416
  22.660         42.50	     7.141
  22.680         48.33	     7.616
  22.700         59.17	     8.426
  22.720         62.50	     8.660
  22.740         50.00	     7.746
  22.760         34.17	     6.403
  22.780         46.67	     7.483
  22.800         62.50	     8.660
  22.820         50.83	     7.810
  22.840         48.33	     7.616
  22.860         40.83	     7.000
  22.880         62.50	     8.660
  22.900         44.17	     7.280
  22.920         31.67	     6.164
  22.940         41.67	     7.071
  22.960         52.50	     7.937
  22.980         39.17	     6.856
  23.000         42.50	     7.141
  23.020         55.83	     8.185
  23.040         43.33	     7.211
  23.060         63.33	     8.718
  23.080         65.00	     8.832
  23.100         60.83	     8.544
  23.120         82.50	     9.950
  23.140         76.67	     9.592
  23.160        100.83	    11.000
  23.180        102.50	    11.091
  23.200        100.00	    10.954
  23.220        118.33	    11.916
  23.240        129.17	    12.450
  23.260        118.33	    11.916
  23.280        120.00	    12.000
  23.300        116.67	    11.832
  23.320        105.00	    11.225
  23.340         90.83	    10.440
  23.360         89.17	    10.344
  23.380         83.33	    10.000
  23.400         90.83	    10.440
  23.420         82.50	     9.950
  23.440         69.17	     9.110
  23.460         48.33	     7.616
  23.480         51.67	     7.874
  23.500         46.67	     7.483
  23.520         34.17	     6.403
  23.540         52.50	     7.937
  23.560         50.00	     7.746
  23.580         42.50	     7.141
  23.600         46.67	     7.483
  23.620         55.00	     8.124
  23.640         46.67	     7.483
  23.660         48.33	     7.616
  23.680         65.00	     8.832
  23.700         83.33	    10.000
  23.720         61.67	     8.602
  23.740         65.00	     8.832
  23.760         91.67	    10.488
  23.780         95.00	    10.677
  23.800        105.00	    11.225
  23.820        143.33	    13.115
  23.840        165.00	    14.071
  23.860        173.33	    14.422
  23.880        154.17	    13.601
  23.900        155.00	    13.638
  23.920        143.33	    13.115
  23.940        132.50	    12.610
  23.960        125.00	    12.247
  23.980        113.33	    11.662
  24.000        116.67	    11.832
  24.020         94.17	    10.630
  24.040         87.50	    10.247
  24.060        107.50	    11.358
  24.080         93.33	    10.583
  24.100         98.33	    10.863
  24.120        108.33	    11.402
  24.140         99.17	    10.909
  24.160        103.33	    11.136
  24.180         95.00	    10.677
  24.200         77.50	     9.644
  24.220         91.67	    10.488
  24.240         99.17	    10.909
  24.260         91.67	    10.488
  24.280         90.00	    10.392
  24.300         95.83	    10.724
  24.320        102.50	    11.091
  24.340        100.00	    10.954
  24.360        103.33	    11.136
  24.380         93.33	    10.583
  24.400         99.17	    10.909
  24.420        107.50	    11.358
  24.440        110.00	    11.489
  24.460        101.67	    11.045
  24.480        121.67	    12.083
  24.500        112.50	    11.619
  24.520        111.67	    11.576
  24.540        136.67	    12.806
  24.560        169.17	    14.248
  24.580        135.00	    12.728
  24.600        139.17	    12.923
  24.620        149.17	    13.379
  24.640        127.50	    12.369
  24.660        120.00	    12.000
  24.680        103.33	    11.136
  24.700         95.83	    10.724
  24.720         84.17	    10.050
  24.740         65.00	     8.832
  24.760         74.17	     9.434
  24.780         81.67	     9.899
  24.800         98.33	    10.863
  24.820        116.67	    11.832
  24.840        103.33	    11.136
  24.860        140.83	    13.000
  24.880        156.67	    13.711
  24.900        184.17	    14.866
  24.920        185.00	    14.900
  24.940        210.00	    15.875
  24.960        180.83	    14.731
  24.980        196.67	    15.362
  25.000        204.17	    15.652
  25.020        190.00	    15.100
  25.040        179.17	    14.663
  25.060        171.67	    14.353
  25.080        170.83	    14.318
  25.100        132.50	    12.610
  25.120         89.17	    10.344
  25.140         90.00	    10.392
  25.160        115.00	    11.747
  25.180         91.67	    10.488
  25.200         85.00	    10.100
  25.220        100.00	    10.954
  25.240        100.83	    11.000
  25.260        116.67	    11.832
  25.280         95.00	    10.677
  25.300        105.83	    11.269
  25.320        127.50	    12.369
  25.340        131.67	    12.570
  25.360        143.33	    13.115
  25.380        167.50	    14.177
  25.400        205.00	    15.684
  25.420        211.67	    15.937
  25.440        244.17	    17.117
  25.460        324.17	    19.723
  25.480        305.83	    19.157
  25.500        290.83	    18.682
  25.520        253.33	    17.436
  25.540        214.17	    16.031
  25.560        175.83	    14.526
  25.580        171.67	    14.353
  25.600        135.83	    12.767
  25.620        135.83	    12.767
  25.640        110.83	    11.533
  25.660        114.17	    11.705
  25.680        130.83	    12.530
  25.700        143.33	    13.115
  25.720        152.50	    13.528
  25.740        170.00	    14.283
  25.760        190.83	    15.133
  25.780        190.00	    15.100
  25.800        200.83	    15.524
  25.820        206.67	    15.748
  25.840        210.83	    15.906
  25.860        204.17	    15.652
  25.880        190.83	    15.133
  25.900        155.00	    13.638
  25.920        144.17	    13.153
  25.940        147.50	    13.304
  25.960        134.17	    12.689
  25.980        121.67	    12.083
  26.000        118.33	    11.916
  26.020         82.50	     9.950
  26.040         95.83	    10.724
  26.060         76.67	     9.592
  26.080         72.50	     9.327
  26.100         75.83	     9.539
  26.120         70.83	     9.220
  26.140         66.67	     8.944
  26.160         63.33	     8.718
  26.180         78.33	     9.695
  26.200         56.67	     8.246
  26.220         52.50	     7.937
  26.240         69.17	     9.110
  26.260         64.17	     8.775
  26.280         83.33	    10.000
  26.300         64.17	     8.775
  26.320         71.67	     9.274
  26.340         74.17	     9.434
  26.360         59.17	     8.426
  26.380         77.50	     9.644
  26.400         69.17	     9.110
  26.420         69.17	     9.110
  26.440         81.67	     9.899
  26.460         92.50	    10.536
  26.480        103.33	    11.136
  26.500         93.33	    10.583
  26.520         99.17	    10.909
  26.540        112.50	    11.619
  26.560        119.17	    11.958
  26.580        159.17	    13.820
  26.600        160.00	    13.856
  26.620        165.00	    14.071
  26.640        190.00	    15.100
  26.660        181.67	    14.765
  26.680        196.67	    15.362
  26.700        258.33	    17.607
  26.720        260.00	    17.664
  26.740        269.17	    17.972
  26.760        314.17	    19.416
  26.780        353.33	    20.591
  26.800        413.33	    22.271
  26.820        400.83	    21.932
  26.840        385.83	    21.517
  26.860        537.50	    25.397
  26.880        743.33	    29.866
  26.900        973.33	    34.176
  26.920       1107.50	    36.455
  26.940       1300.00	    39.497
  26.960       1400.00	    40.988
  26.980       1193.33	    37.842
  27.000        959.17	    33.926
  27.020        842.50	    31.796
  27.040        686.67	    28.705
  27.060        555.00	    25.807
  27.080        520.00	    24.980
  27.100        550.83	    25.710
  27.120        585.00	    26.495
  27.140        583.33	    26.458
  27.160        575.00	    26.268
  27.180        544.17	    25.554
  27.200        546.67	    25.612
  27.220        482.50	    24.062
  27.240        406.67	    22.091
  27.260        314.17	    19.416
  27.280        280.83	    18.358
  27.300        199.17	    15.460
  27.320        197.50	    15.395
  27.340        165.83	    14.107
  27.360        132.50	    12.610
  27.380        135.83	    12.767
  27.400        123.33	    12.166
  27.420        122.50	    12.124
  27.440        140.00	    12.961
  27.460        118.33	    11.916
  27.480         98.33	    10.863
  27.500         94.17	    10.630
  27.520         79.17	     9.747
  27.540         99.17	    10.909
  27.560         96.67	    10.770
  27.580         90.83	    10.440
  27.600         75.00	     9.487
  27.620         86.67	    10.198
  27.640         88.33	    10.296
  27.660         72.50	     9.327
  27.680         75.00	     9.487
  27.700         82.50	     9.950
  27.720         96.67	    10.770
  27.740         87.50	    10.247
  27.760        121.67	    12.083
  27.780        146.67	    13.266
  27.800        148.33	    13.342
  27.820        173.33	    14.422
  27.840        159.17	    13.820
  27.860        143.33	    13.115
  27.880        160.00	    13.856
  27.900        139.17	    12.923
  27.920        138.33	    12.884
  27.940        139.17	    12.923
  27.960        160.00	    13.856
  27.980        185.83	    14.933
  28.000        234.17	    16.763
  28.020        253.33	    17.436
  28.040        280.00	    18.330
  28.060        301.67	    19.026
  28.080        343.33	    20.298
  28.100        365.00	    20.928
  28.120        383.33	    21.448
  28.140        355.83	    20.664
  28.160        397.50	    21.840
  28.180        422.50	    22.517
  28.200        485.83	    24.145
  28.220        515.83	    24.880
  28.240        491.67	    24.290
  28.260        494.17	    24.352
  28.280        470.00	    23.749
  28.300        360.83	    20.809
  28.320        344.17	    20.322
  28.340        280.83	    18.358
  28.360        283.33	    18.439
  28.380        215.83	    16.093
  28.400        213.33	    16.000
  28.420        172.50	    14.387
  28.440        190.00	    15.100
  28.460        140.00	    12.961
  28.480        160.00	    13.856
  28.500        129.17	    12.450
  28.520        108.33	    11.402
  28.540        133.33	    12.649
  28.560        135.00	    12.728
  28.580        138.33	    12.884
  28.600        136.67	    12.806
  28.620        110.83	    11.533
  28.640        127.50	    12.369
  28.660        132.50	    12.610
  28.680        108.33	    11.402
  28.700        109.17	    11.446
  28.720        103.33	    11.136
  28.740         86.67	    10.198
  28.760         87.50	    10.247
  28.780         84.17	    10.050
  28.800         98.33	    10.863
  28.820         89.17	    10.344
  28.840        100.00	    10.954
  28.860        101.67	    11.045
  28.880        115.83	    11.790
  28.900        113.33	    11.662
  28.920        109.17	    11.446
  28.940         94.17	    10.630
  28.960        100.00	    10.954
  28.980        105.00	    11.225
  29.000        100.00	    10.954
  29.020        105.83	    11.269
  29.040         98.33	    10.863
  29.060         88.33	    10.296
  29.080         95.00	    10.677
  29.100         88.33	    10.296
  29.120         90.83	    10.440
  29.140         70.00	     9.165
  29.160         72.50	     9.327
  29.180         66.67	     8.944
  29.200         76.67	     9.592
  29.220         55.00	     8.124
  29.240         45.83	     7.416
  29.260         47.50	     7.550
  29.280         51.67	     7.874
  29.300         48.33	     7.616
  29.320         44.17	     7.280
  29.340         45.00	     7.348
  29.360         50.83	     7.810
  29.380         44.17	     7.280
  29.400         30.83	     6.083
  29.420         36.67	     6.633
  29.440         56.67	     8.246
  29.460         46.67	     7.483
  29.480         45.00	     7.348
  29.500         56.67	     8.246
  29.520         40.00	     6.928
  29.540         35.83	     6.557
  29.560         50.00	     7.746
  29.580         54.17	     8.062
  29.600         41.67	     7.071
  29.620         43.33	     7.211
  29.640         46.67	     7.483
  29.660         46.67	     7.483
  29.680         34.17	     6.403
  29.700         48.33	     7.616
  29.720         32.50	     6.245
  29.740         51.67	     7.874
  29.760         45.83	     7.416
  29.780         56.67	     8.246
  29.800         46.67	     7.483
  29.820         46.67	     7.483
  29.840         46.67	     7.483
  29.860         42.50	     7.141
  29.880         60.83	     8.544
  29.900         48.33	     7.616
  29.920         58.33	     8.367
  29.940         45.83	     7.416
  29.960         64.17	     8.775
  29.980         61.67	     8.602
  30.000         78.33	     9.695
  30.020         82.50	     9.950
  30.040         86.67	    10.198
  30.060         90.00	    10.392
  30.080        125.00	    12.247
  30.100        121.67	    12.083
  30.120        146.67	    13.266
  30.140        149.17	    13.379
  30.160        160.83	    13.892
  30.180        183.33	    14.832
  30.200        210.83	    15.906
  30.220        185.00	    14.900
  30.240        198.33	    15.427
  30.260        195.83	    15.330
  30.280        138.33	    12.884
  30.300        127.50	    12.369
  30.320        116.67	    11.832
  30.340         97.50	    10.817
  30.360        105.00	    11.225
  30.380        100.83	    11.000
  30.400        100.83	    11.000
  30.420         80.83	     9.849
  30.440         96.67	    10.770
  30.460         84.17	    10.050
  30.480         79.17	     9.747
  30.500         99.17	    10.909
  30.520         92.50	    10.536
  30.540         76.67	     9.592
  30.560         81.67	     9.899
  30.580         73.33	     9.381
  30.600         82.50	     9.950
  30.620        101.67	    11.045
  30.640         84.17	    10.050
  30.660        101.67	    11.045
  30.680        100.83	    11.000
  30.700         94.17	    10.630
  30.720         88.33	    10.296
  30.740        130.00	    12.490
  30.760        108.33	    11.402
  30.780        127.50	    12.369
  30.800        115.00	    11.747
  30.820         97.50	    10.817
  30.840         95.83	    10.724
  30.860         80.83	     9.849
  30.880         96.67	    10.770
  30.900         60.00	     8.485
  30.920         70.00	     9.165
  30.940         69.17	     9.110
  30.960         60.83	     8.544
  30.980         65.00	     8.832
  31.000         60.00	     8.485
  31.020         60.83	     8.544
  31.040         65.00	     8.832
  31.060         79.17	     9.747
  31.080         70.00	     9.165
  31.100         76.67	     9.592
  31.120         70.83	     9.220
  31.140         83.33	    10.000
  31.160         63.33	     8.718
  31.180         60.00	     8.485
  31.200         77.50	     9.644
  31.220         52.50	     7.937
  31.240         65.83	     8.888
  31.260         55.83	     8.185
  31.280         75.00	     9.487
  31.300         61.67	     8.602
  31.320         83.33	    10.000
  31.340         94.17	    10.630
  31.360         93.33	    10.583
  31.380        113.33	    11.662
  31.400        115.83	    11.790
  31.420        115.83	    11.790
  31.440        101.67	    11.045
  31.460        105.83	    11.269
  31.480        135.00	    12.728
  31.500        137.50	    12.845
  31.520        171.67	    14.353
  31.540        179.17	    14.663
  31.560        192.50	    15.199
  31.580        170.83	    14.318
  31.600        161.67	    13.928
  31.620        165.83	    14.107
  31.640        142.50	    13.077
  31.660        117.50	    11.874
  31.680        121.67	    12.083
  31.700        103.33	    11.136
  31.720        101.67	    11.045
  31.740        120.83	    12.042
  31.760         80.83	     9.849
  31.780         72.50	     9.327
  31.800         76.67	     9.592
  31.820         76.67	     9.592
  31.840         87.50	    10.247
  31.860         95.00	    10.677
  31.880         85.00	    10.100
  31.900         82.50	     9.950
  31.920         95.00	    10.677
  31.940         74.17	     9.434
  31.960         69.17	     9.110
  31.980         70.83	     9.220
  32.000         60.83	     8.544
  32.020         59.17	     8.426
  32.040         61.67	     8.602
  32.060         52.50	     7.937
  32.080         44.17	     7.280
  32.100         50.00	     7.746
  32.120         71.67	     9.274
  32.140         68.33	     9.055
  32.160         69.17	     9.110
  32.180         56.67	     8.246
  32.200         77.50	     9.644
  32.220         67.50	     9.000
  32.240         64.17	     8.775
  32.260         75.83	     9.539
  32.280         83.33	    10.000
  32.300         85.83	    10.149
  32.320        110.00	    11.489
  32.340        102.50	    11.091
  32.360        106.67	    11.314
  32.380         97.50	    10.817
  32.400        120.00	    12.000
  32.420        113.33	    11.662
  32.440        106.67	    11.314
  32.460        100.83	    11.000
  32.480        107.50	    11.358
  32.500         74.17	     9.434
  32.520         60.00	     8.485
  32.540         68.33	     9.055
  32.560         60.83	     8.544
  32.580         62.50	     8.660
  32.600         53.33	     8.000
  32.620         45.00	     7.348
  32.640         55.83	     8.185
  32.660         41.67	     7.071
  32.680         42.50	     7.141
  32.700         35.83	     6.557
  32.720         53.33	     8.000
  32.740         52.50	     7.937
  32.760         41.67	     7.071
  32.780         42.50	     7.141
  32.800         42.50	     7.141
  32.820         29.17	     5.916
  32.840         31.67	     6.164
  32.860         31.67	     6.164
  32.880         39.17	     6.856
  32.900         53.33	     8.000
  32.920         28.33	     5.831
  32.940         43.33	     7.211
  32.960         47.50	     7.550
  32.980         28.33	     5.831
  33.000         41.67	     7.071
  33.020         29.17	     5.916
  33.040         31.67	     6.164
  33.060         45.83	     7.416
  33.080         57.50	     8.307
  33.100         38.33	     6.782
  33.120         30.83	     6.083
  33.140         45.00	     7.348
  33.160         46.67	     7.483
  33.180         45.00	     7.348
  33.200         50.83	     7.810
  33.220         43.33	     7.211
  33.240         45.00	     7.348
  33.260         50.83	     7.810
  33.280         38.33	     6.782
  33.300         70.83	     9.220
  33.320         65.83	     8.888
  33.340         78.33	     9.695
  33.360         81.67	     9.899
  33.380         61.67	     8.602
  33.400         61.67	     8.602
  33.420         69.17	     9.110
  33.440         70.83	     9.220
  33.460         70.00	     9.165
  33.480         55.83	     8.185
  33.500         48.33	     7.616
  33.520         50.00	     7.746
  33.540         35.00	     6.481
  33.560         43.33	     7.211
  33.580         35.00	     6.481
  33.600         40.83	     7.000
  33.620         44.17	     7.280
  33.640         41.67	     7.071
  33.660         36.67	     6.633
  33.680         49.17	     7.681
  33.700         50.00	     7.746
  33.720         44.17	     7.280
  33.740         43.33	     7.211
  33.760         42.50	     7.141
  33.780         56.67	     8.246
  33.800         57.50	     8.307
  33.820         50.00	     7.746
  33.840         55.83	     8.185
  33.860         38.33	     6.782
  33.880         58.33	     8.367
  33.900         49.17	     7.681
  33.920         52.50	     7.937
  33.940         41.67	     7.071
  33.960         46.67	     7.483
  33.980         53.33	     8.000
  34.000         34.17	     6.403
  34.020         41.67	     7.071
  34.040         50.00	     7.746
  34.060         36.67	     6.633
  34.080         56.67	     8.246
  34.100         56.67	     8.246
  34.120         52.50	     7.937
  34.140         67.50	     9.000
  34.160         59.17	     8.426
  34.180         48.33	     7.616
  34.200         65.00	     8.832
  34.220         61.67	     8.602
  34.240         67.50	     9.000
  34.260         83.33	    10.000
  34.280         85.83	    10.149
  34.300         69.17	     9.110
  34.320         84.17	    10.050
  34.340         85.83	    10.149
  34.360        112.50	    11.619
  34.380         72.50	     9.327
  34.400         87.50	    10.247
  34.420         67.50	     9.000
  34.440         83.33	    10.000
  34.460         60.00	     8.485
  34.480         70.00	     9.165
  34.500         63.33	     8.718
  34.520         61.67	     8.602
  34.540         68.33	     9.055
  34.560         55.83	     8.185
  34.580         70.83	     9.220
  34.600         75.83	     9.539
  34.620         50.00	     7.746
  34.640         80.83	     9.849
  34.660         83.33	    10.000
  34.680         80.00	     9.798
  34.700         89.17	    10.344
  34.720         88.33	    10.296
  34.740        105.00	    11.225
  34.760        101.67	    11.045
  34.780        115.83	    11.790
  34.800        121.67	    12.083
  34.820        153.33	    13.565
  34.840        164.17	    14.036
  34.860        115.83	    11.790
  34.880        131.67	    12.570
  34.900        126.67	    12.329
  34.920        117.50	    11.874
  34.940        121.67	    12.083
  34.960        137.50	    12.845
  34.980         90.83	    10.440
  35.000         76.67	     9.592
  35.020         80.00	     9.798
  35.040         68.33	     9.055
  35.060         92.50	    10.536
  35.080        103.33	    11.136
  35.100        103.33	    11.136
  35.120        109.17	    11.446
  35.140        123.33	    12.166
  35.160        142.50	    13.077
  35.180        154.17	    13.601
  35.200        168.33	    14.213
  35.220        215.00	    16.062
  35.240        212.50	    15.969
  35.260        199.17	    15.460
  35.280        189.17	    15.067
  35.300        189.17	    15.067
  35.320        180.00	    14.697
  35.340        204.17	    15.652
  35.360        181.67	    14.765
  35.380        152.50	    13.528
  35.400        113.33	    11.662
  35.420        130.00	    12.490
  35.440        143.33	    13.115
  35.460        109.17	    11.446
  35.480        113.33	    11.662
  35.500        105.83	    11.269
  35.520         95.83	    10.724
  35.540         87.50	    10.247
  35.560         87.50	    10.247
  35.580         67.50	     9.000
  35.600        102.50	    11.091
  35.620         89.17	    10.344
  35.640         91.67	    10.488
  35.660         89.17	    10.344
  35.680        100.83	    11.000
  35.700        111.67	    11.576
  35.720        107.50	    11.358
  35.740        146.67	    13.266
  35.760        167.50	    14.177
  35.780        143.33	    13.115
  35.800        131.67	    12.570
  35.820        118.33	    11.916
  35.840        130.00	    12.490
  35.860        131.67	    12.570
  35.880         91.67	    10.488
  35.900        111.67	    11.576
  35.920         81.67	     9.899
  35.940         77.50	     9.644
  35.960         84.17	    10.050
  35.980         73.33	     9.381
  36.000         75.83	     9.539
  36.020         63.33	     8.718
  36.040         61.67	     8.602
  36.060         67.50	     9.000
  36.080         68.33	     9.055
  36.100         75.00	     9.487
  36.120         67.50	     9.000
  36.140         80.83	     9.849
  36.160         64.17	     8.775
  36.180         60.00	     8.485
  36.200         56.67	     8.246
  36.220         73.33	     9.381
  36.240         54.17	     8.062
  36.260         80.00	     9.798
  36.280         74.17	     9.434
  36.300         75.83	     9.539
  36.320         79.17	     9.747
  36.340         97.50	    10.817
  36.360         76.67	     9.592
  36.380         67.50	     9.000
  36.400         91.67	    10.488
  36.420         82.50	     9.950
  36.440         83.33	    10.000
  36.460         71.67	     9.274
  36.480         62.50	     8.660
  36.500         72.50	     9.327
  36.520         59.17	     8.426
  36.540         53.33	     8.000
  36.560         60.83	     8.544
  36.580         61.67	     8.602
  36.600         47.50	     7.550
  36.620         60.00	     8.485
  36.640         58.33	     8.367
  36.660         58.33	     8.367
  36.680         64.17	     8.775
  36.700         79.17	     9.747
  36.720         60.00	     8.485
  36.740         87.50	    10.247
  36.760        104.17	    11.180
  36.780        116.67	    11.832
  36.800        149.17	    13.379
  36.820        179.17	    14.663
  36.840        183.33	    14.832
  36.860        185.00	    14.900
  36.880        155.83	    13.675
  36.900        150.00	    13.416
  36.920        151.67	    13.491
  36.940        173.33	    14.422
  36.960        160.83	    13.892
  36.980        149.17	    13.379
  37.000        127.50	    12.369
  37.020        112.50	    11.619
  37.040        115.00	    11.747
  37.060        127.50	    12.369
  37.080        109.17	    11.446
  37.100        104.17	    11.180
  37.120         79.17	     9.747
  37.140         83.33	    10.000
  37.160         81.67	     9.899
  37.180         80.00	     9.798
  37.200         58.33	     8.367
  37.220         60.83	     8.544
  37.240         59.17	     8.426
  37.260         65.00	     8.832
  37.280         75.00	     9.487
  37.300         53.33	     8.000
  37.320         53.33	     8.000
  37.340         50.00	     7.746
  37.360         64.17	     8.775
  37.380         63.33	     8.718
  37.400         54.17	     8.062
  37.420         45.83	     7.416
  37.440         70.83	     9.220
  37.460         61.67	     8.602
  37.480         57.50	     8.307
  37.500         63.33	     8.718
  37.520         61.67	     8.602
  37.540         60.83	     8.544
  37.560         55.00	     8.124
  37.580         66.67	     8.944
  37.600         77.50	     9.644
  37.620         71.67	     9.274
  37.640         68.33	     9.055
  37.660         70.00	     9.165
  37.680         84.17	    10.050
  37.700         70.83	     9.220
  37.720         69.17	     9.110
  37.740         87.50	    10.247
  37.760         94.17	    10.630
  37.780         80.83	     9.849
  37.800         89.17	    10.344
  37.820         74.17	     9.434
  37.840         97.50	    10.817
  37.860         80.83	     9.849
  37.880         95.00	    10.677
  37.900        128.33	    12.410
  37.920        126.67	    12.329
  37.940        114.17	    11.705
  37.960        104.17	    11.180
  37.980        113.33	    11.662
  38.000        124.17	    12.207
  38.020        123.33	    12.166
  38.040        121.67	    12.083
  38.060        105.83	    11.269
  38.080        105.00	    11.225
  38.100         88.33	    10.296
  38.120         70.83	     9.220
  38.140         77.50	     9.644
  38.160         55.00	     8.124
  38.180         51.67	     7.874
  38.200         65.00	     8.832
  38.220         69.17	     9.110
  38.240         50.00	     7.746
  38.260         62.50	     8.660
  38.280         45.00	     7.348
  38.300         43.33	     7.211
  38.320         50.00	     7.746
  38.340         50.00	     7.746
  38.360         40.00	     6.928
  38.380         35.00	     6.481
  38.400         38.33	     6.782
  38.420         30.83	     6.083
  38.440         40.00	     6.928
  38.460         48.33	     7.616
  38.480         29.17	     5.916
  38.500         30.00	     6.000
  38.520         27.50	     5.745
  38.540         31.67	     6.164
  38.560         25.00	     5.477
  38.580         27.50	     5.745
  38.600         28.33	     5.831
  38.620         30.83	     6.083
  38.640         37.50	     6.708
  38.660         35.00	     6.481
  38.680         32.50	     6.245
  38.700         41.67	     7.071
  38.720         32.50	     6.245
  38.740         40.83	     7.000
  38.760         38.33	     6.782
  38.780         51.67	     7.874
  38.800         55.00	     8.124
  38.820         55.00	     8.124
  38.840         51.67	     7.874
  38.860         58.33	     8.367
  38.880         42.50	     7.141
  38.900         54.17	     8.062
  38.920         50.00	     7.746
  38.940         61.67	     8.602
  38.960         49.17	     7.681
  38.980         51.67	     7.874
  39.000         45.83	     7.416
  39.020         46.67	     7.483
  39.040         44.17	     7.280
  39.060         63.33	     8.718
  39.080         49.17	     7.681
  39.100         50.83	     7.810
  39.120         66.67	     8.944
  39.140         46.67	     7.483
  39.160         41.67	     7.071
  39.180         36.67	     6.633
  39.200         50.00	     7.746
  39.220         55.83	     8.185
  39.240         50.83	     7.810
  39.260         41.67	     7.071
  39.280         33.33	     6.325
  39.300         39.17	     6.856
  39.320         45.83	     7.416
  39.340         35.00	     6.481
  39.360         43.33	     7.211
  39.380         46.67	     7.483
  39.400         35.83	     6.557
  39.420         30.83	     6.083
  39.440         37.50	     6.708
  39.460         36.67	     6.633
  39.480         36.67	     6.633
  39.500         47.50	     7.550
  39.520         30.83	     6.083
  39.540         44.17	     7.280
  39.560         35.00	     6.481
  39.580         49.17	     7.681
  39.600         41.67	     7.071
  39.620         44.17	     7.280
  39.640         46.67	     7.483
  39.660         50.00	     7.746
  39.680         64.17	     8.775
  39.700         77.50	     9.644
  39.720         90.83	    10.440
  39.740        119.17	    11.958
  39.760        155.00	    13.638
  39.780        131.67	    12.570
  39.800        108.33	    11.402
  39.820         94.17	    10.630
  39.840        100.83	    11.000
  39.860        100.00	    10.954
  39.880         79.17	     9.747
  39.900         90.83	    10.440
  39.920         56.67	     8.246
  39.940         60.83	     8.544
  39.960         52.50	     7.937
  39.980         63.33	     8.718
  40.000         63.33	     8.718
  40.020         46.67	     7.483
  40.040         69.17	     9.110
  40.060         53.33	     8.000
  40.080         73.33	     9.381
  40.100         55.00	     8.124
  40.120         50.00	     7.746
  40.140         64.17	     8.775
  40.160         59.17	     8.426
  40.180         52.50	     7.937
  40.200         60.83	     8.544
  40.220         60.00	     8.485
  40.240         46.67	     7.483
  40.260         59.17	     8.426
  40.280         50.00	     7.746
  40.300         54.17	     8.062
  40.320         53.33	     8.000
  40.340         52.50	     7.937
  40.360         58.33	     8.367
  40.380         45.83	     7.416
  40.400         56.67	     8.246
  40.420         61.67	     8.602
  40.440         44.17	     7.280
  40.460         48.33	     7.616
  40.480         59.17	     8.426
  40.500         45.00	     7.348
  40.520         61.67	     8.602
  40.540         64.17	     8.775
  40.560         78.33	     9.695
  40.580         87.50	    10.247
  40.600         80.83	     9.849
  40.620         74.17	     9.434
  40.640         72.50	     9.327
  40.660         65.83	     8.888
  40.680         67.50	     9.000
  40.700         70.83	     9.220
  40.720         63.33	     8.718
  40.740         55.00	     8.124
  40.760         49.17	     7.681
  40.780         54.17	     8.062
  40.800         42.50	     7.141
  40.820         46.67	     7.483
  40.840         48.33	     7.616
  40.860         42.50	     7.141
  40.880         35.00	     6.481
  40.900         49.17	     7.681
  40.920         40.00	     6.928
  40.940         39.17	     6.856
  40.960         48.33	     7.616
  40.980         51.67	     7.874
  41.000         48.33	     7.616
  41.020         28.33	     5.831
  41.040         45.83	     7.416
  41.060         39.17	     6.856
  41.080         50.00	     7.746
  41.100         57.50	     8.307
  41.120         43.33	     7.211
  41.140         39.17	     6.856
  41.160         59.17	     8.426
  41.180         49.17	     7.681
  41.200         52.50	     7.937
  41.220         50.00	     7.746
  41.240         48.33	     7.616
  41.260         51.67	     7.874
  41.280         48.33	     7.616
  41.300         43.33	     7.211
  41.320         47.50	     7.550
  41.340         31.67	     6.164
  41.360         46.67	     7.483
  41.380         40.00	     6.928
  41.400         40.83	     7.000
  41.420         45.00	     7.348
  41.440         49.17	     7.681
  41.460         40.83	     7.000
  41.480         65.00	     8.832
  41.500         50.00	     7.746
  41.520         57.50	     8.307
  41.540         52.50	     7.937
  41.560         53.33	     8.000
  41.580         68.33	     9.055
  41.600         55.00	     8.124
  41.620         62.50	     8.660
  41.640         56.67	     8.246
  41.660         69.17	     9.110
  41.680         53.33	     8.000
  41.700         49.17	     7.681
  41.720         51.67	     7.874
  41.740         48.33	     7.616
  41.760         72.50	     9.327
  41.780         55.00	     8.124
  41.800         51.67	     7.874
  41.820         46.67	     7.483
  41.840         47.50	     7.550
  41.860         45.83	     7.416
  41.880         53.33	     8.000
  41.900         61.67	     8.602
  41.920         65.83	     8.888
  41.940         52.50	     7.937
  41.960         70.00	     9.165
  41.980         66.67	     8.944
  42.000         80.00	     9.798
  42.020         70.83	     9.220
  42.040         64.17	     8.775
  42.060         63.33	     8.718
  42.080         53.33	     8.000
  42.100         60.83	     8.544
  42.120         58.33	     8.367
  42.140         53.33	     8.000
  42.160         72.50	     9.327
  42.180         65.00	     8.832
  42.200         56.67	     8.246
  42.220         58.33	     8.367
  42.240         60.83	     8.544
  42.260         61.67	     8.602
  42.280         75.83	     9.539
  42.300         71.67	     9.274
  42.320         75.00	     9.487
  42.340         70.83	     9.220
  42.360         58.33	     8.367
  42.380         57.50	     8.307
  42.400         51.67	     7.874
  42.420         55.00	     8.124
  42.440         52.50	     7.937
  42.460         54.17	     8.062
  42.480         58.33	     8.367
  42.500         75.00	     9.487
  42.520         66.67	     8.944
  42.540         74.17	     9.434
  42.560         81.67	     9.899
  42.580         75.83	     9.539
  42.600         94.17	    10.630
  42.620         95.83	    10.724
  42.640        107.50	    11.358
  42.660        104.17	    11.180
  42.680        130.83	    12.530
  42.700        174.17	    14.457
  42.720        173.33	    14.422
  42.740        176.67	    14.560
  42.760        149.17	    13.379
  42.780        120.83	    12.042
  42.800        135.00	    12.728
  42.820        111.67	    11.576
  42.840        109.17	    11.446
  42.860         96.67	    10.770
  42.880         93.33	    10.583
  42.900         85.00	    10.100
  42.920         61.67	     8.602
  42.940         59.17	     8.426
  42.960         37.50	     6.708
  42.980         65.83	     8.888
  43.000         60.00	     8.485
  43.020         69.17	     9.110
  43.040         61.67	     8.602
  43.060         69.17	     9.110
  43.080         45.83	     7.416
  43.100         61.67	     8.602
  43.120         45.83	     7.416
  43.140         44.17	     7.280
  43.160         59.17	     8.426
  43.180         40.83	     7.000
  43.200         56.67	     8.246
  43.220         37.50	     6.708
  43.240         46.67	     7.483
  43.260         40.83	     7.000
  43.280         46.67	     7.483
  43.300         41.67	     7.071
  43.320         47.50	     7.550
  43.340         33.33	     6.325
  43.360         49.17	     7.681
  43.380         31.67	     6.164
  43.400         40.83	     7.000
  43.420         33.33	     6.325
  43.440         35.00	     6.481
  43.460         35.83	     6.557
  43.480         25.00	     5.477
  43.500         37.50	     6.708
  43.520         43.33	     7.211
  43.540         36.67	     6.633
  43.560         33.33	     6.325
  43.580         39.17	     6.856
  43.600         40.00	     6.928
  43.620         37.50	     6.708
  43.640         28.33	     5.831
  43.660         41.67	     7.071
  43.680         37.50	     6.708
  43.700         30.00	     6.000
  43.720         31.67	     6.164
  43.740         40.83	     7.000
  43.760         30.00	     6.000
  43.780         40.00	     6.928
  43.800         46.67	     7.483
  43.820         46.67	     7.483
  43.840         63.33	     8.718
  43.860         47.50	     7.550
  43.880         40.83	     7.000
  43.900         41.67	     7.071
  43.920         36.67	     6.633
  43.940         48.33	     7.616
  43.960         42.50	     7.141
  43.980         46.67	     7.483
  44.000         45.83	     7.416
  44.020         51.67	     7.874
  44.040         39.17	     6.856
  44.060         43.33	     7.211
  44.080         32.50	     6.245
  44.100         35.00	     6.481
  44.120         43.33	     7.211
  44.140         30.83	     6.083
  44.160         32.50	     6.245
  44.180         37.50	     6.708
  44.200         30.83	     6.083
  44.220         38.33	     6.782
  44.240         43.33	     7.211
  44.260         45.00	     7.348
  44.280         43.33	     7.211
  44.300         40.83	     7.000
  44.320         48.33	     7.616
  44.340         35.00	     6.481
  44.360         46.67	     7.483
  44.380         30.00	     6.000
  44.400         46.67	     7.483
  44.420         44.17	     7.280
  44.440         40.83	     7.000
  44.460         35.00	     6.481
  44.480         40.83	     7.000
  44.500         36.67	     6.633
  44.520         39.17	     6.856
  44.540         38.33	     6.782
  44.560         31.67	     6.164
  44.580         31.67	     6.164
  44.600         35.83	     6.557
  44.620         38.33	     6.782
  44.640         37.50	     6.708
  44.660         32.50	     6.245
  44.680         40.00	     6.928
  44.700         25.00	     5.477
  44.720         44.17	     7.280
  44.740         40.83	     7.000
  44.760         30.00	     6.000
  44.780         34.17	     6.403
  44.800         35.00	     6.481
  44.820         35.00	     6.481
  44.840         36.67	     6.633
  44.860         41.67	     7.071
  44.880         47.50	     7.550
  44.900         38.33	     6.782
  44.920         49.17	     7.681
  44.940         45.00	     7.348
  44.960         39.17	     6.856
  44.980         43.33	     7.211
  45.000         39.17	     6.856
  45.020         39.17	     6.856
  45.040         55.00	     8.124
  45.060         52.50	     7.937
  45.080         62.50	     8.660
  45.100         66.67	     8.944
  45.120         62.50	     8.660
  45.140         64.17	     8.775
  45.160         58.33	     8.367
  45.180         57.50	     8.307
  45.200         60.83	     8.544
  45.220         68.33	     9.055
  45.240         69.17	     9.110
  45.260         69.17	     9.110
  45.280         76.67	     9.592
  45.300        101.67	    11.045
  45.320         83.33	    10.000
  45.340         92.50	    10.536
  45.360         82.50	     9.950
  45.380         66.67	     8.944
  45.400         89.17	    10.344
  45.420         95.00	    10.677
  45.440         95.83	    10.724
  45.460         99.17	    10.909
  45.480         98.33	    10.863
  45.500         89.17	    10.344
  45.520         76.67	     9.592
  45.540         89.17	    10.344
  45.560         97.50	    10.817
  45.580         99.17	    10.909
  45.600         99.17	    10.909
  45.620         89.17	    10.344
  45.640        104.17	    11.180
  45.660        115.00	    11.747
  45.680        130.00	    12.490
  45.700        126.67	    12.329
  45.720        142.50	    13.077
  45.740        165.83	    14.107
  45.760        176.67	    14.560
  45.780        174.17	    14.457
  45.800        187.50	    15.000
  45.820        181.67	    14.765
  45.840        212.50	    15.969
  45.860        230.00	    16.613
  45.880        197.50	    15.395
  45.900        207.50	    15.780
  45.920        177.50	    14.595
  45.940        180.00	    14.697
  45.960        126.67	    12.329
  45.980        133.33	    12.649
  46.000        127.50	    12.369
  46.020        124.17	    12.207
  46.040        107.50	    11.358
  46.060        120.00	    12.000
  46.080        117.50	    11.874
  46.100        116.67	    11.832
  46.120        109.17	    11.446
  46.140         86.67	    10.198
  46.160         73.33	     9.381
  46.180         68.33	     9.055
  46.200         76.67	     9.592
  46.220        100.00	    10.954
  46.240         75.83	     9.539
  46.260         76.67	     9.592
  46.280         79.17	     9.747
  46.300         79.17	     9.747
  46.320         73.33	     9.381
  46.340         71.67	     9.274
  46.360         56.67	     8.246
  46.380         62.50	     8.660
  46.400         60.00	     8.485
  46.420         70.00	     9.165
  46.440         53.33	     8.000
  46.460         56.67	     8.246
  46.480         65.83	     8.888
  46.500         61.67	     8.602
  46.520         53.33	     8.000
  46.540         49.17	     7.681
  46.560         45.83	     7.416
  46.580         41.67	     7.071
  46.600         38.33	     6.782
  46.620         38.33	     6.782
  46.640         41.67	     7.071
  46.660         30.83	     6.083
  46.680         35.83	     6.557
  46.700         37.50	     6.708
  46.720         38.33	     6.782
  46.740         38.33	     6.782
  46.760         42.50	     7.141
  46.780         40.83	     7.000
  46.800         41.67	     7.071
  46.820         42.50	     7.141
  46.840         35.00	     6.481
  46.860         36.67	     6.633
  46.880         44.17	     7.280
  46.900         57.50	     8.307
  46.920         60.00	     8.485
  46.940         46.67	     7.483
  46.960         35.00	     6.481
  46.980         43.33	     7.211
  47.000         43.33	     7.211
  47.020         27.50	     5.745
  47.040         38.33	     6.782
  47.060         40.83	     7.000
  47.080         38.33	     6.782
  47.100         38.33	     6.782
  47.120         35.00	     6.481
  47.140         27.50	     5.745
  47.160         37.50	     6.708
  47.180         36.67	     6.633
  47.200         34.17	     6.403
  47.220         30.00	     6.000
  47.240         28.33	     5.831
  47.260         28.33	     5.831
  47.280         40.83	     7.000
  47.300         34.17	     6.403
  47.320         30.00	     6.000
  47.340         31.67	     6.164
  47.360         31.67	     6.164
  47.380         38.33	     6.782
  47.400         42.50	     7.141
  47.420         35.83	     6.557
  47.440         42.50	     7.141
  47.460         40.00	     6.928
  47.480         36.67	     6.633
  47.500         32.50	     6.245
  47.520         33.33	     6.325
  47.540         37.50	     6.708
  47.560         38.33	     6.782
  47.580         40.83	     7.000
  47.600         35.83	     6.557
  47.620         40.83	     7.000
  47.640         35.00	     6.481
  47.660         33.33	     6.325
  47.680         34.17	     6.403
  47.700         29.17	     5.916
  47.720         26.67	     5.657
  47.740         22.50	     5.196
  47.760         46.67	     7.483
  47.780         44.17	     7.280
  47.800         35.00	     6.481
  47.820         32.50	     6.245
  47.840         31.67	     6.164
  47.860         31.67	     6.164
  47.880         44.17	     7.280
  47.900         35.00	     6.481
  47.920         30.83	     6.083
  47.940         24.17	     5.385
  47.960         35.00	     6.481
  47.980         25.83	     5.568
  48.000         30.83	     6.083
  48.020         32.50	     6.245
  48.040         24.17	     5.385
  48.060         32.50	     6.245
  48.080         35.00	     6.481
  48.100         28.33	     5.831
  48.120         30.83	     6.083
  48.140         33.33	     6.325
  48.160         37.50	     6.708
  48.180         49.17	     7.681
  48.200         41.67	     7.071
  48.220         36.67	     6.633
  48.240         48.33	     7.616
  48.260         42.50	     7.141
  48.280         57.50	     8.307
  48.300         56.67	     8.246
  48.320         44.17	     7.280
  48.340         51.67	     7.874
  48.360         46.67	     7.483
  48.380         54.17	     8.062
  48.400         50.83	     7.810
  48.420         63.33	     8.718
  48.440         75.00	     9.487
  48.460         50.83	     7.810
  48.480         63.33	     8.718
  48.500         55.83	     8.185
  48.520         57.50	     8.307
  48.540         62.50	     8.660
  48.560         67.50	     9.000
  48.580         58.33	     8.367
  48.600         62.50	     8.660
  48.620         80.00	     9.798
  48.640         63.33	     8.718
  48.660         59.17	     8.426
  48.680         55.00	     8.124
  48.700         50.00	     7.746
  48.720         58.33	     8.367
  48.740         44.17	     7.280
  48.760         51.67	     7.874
  48.780         53.33	     8.000
  48.800         48.33	     7.616
  48.820         42.50	     7.141
  48.840         39.17	     6.856
  48.860         42.50	     7.141
  48.880         49.17	     7.681
  48.900         35.00	     6.481
  48.920         30.00	     6.000
  48.940         33.33	     6.325
  48.960         30.00	     6.000
  48.980         37.50	     6.708
  49.000         40.00	     6.928
  49.020         36.67	     6.633
  49.040         41.67	     7.071
  49.060         41.67	     7.071
  49.080         40.00	     6.928
  49.100         30.83	     6.083
  49.120         38.33	     6.782
  49.140         37.50	     6.708
  49.160         37.50	     6.708
  49.180         30.00	     6.000
  49.200         38.33	     6.782
  49.220         34.17	     6.403
  49.240         40.00	     6.928
  49.260         37.50	     6.708
  49.280         30.83	     6.083
  49.300         46.67	     7.483
  49.320         41.67	     7.071
  49.340         38.33	     6.782
  49.360         31.67	     6.164
  49.380         38.33	     6.782
  49.400         36.67	     6.633
  49.420         33.33	     6.325
  49.440         50.00	     7.746
  49.460         61.67	     8.602
  49.480         51.67	     7.874
  49.500         66.67	     8.944
  49.520         62.50	     8.660
  49.540         50.83	     7.810
  49.560         49.17	     7.681
  49.580         43.33	     7.211
  49.600         34.17	     6.403
  49.620         60.00	     8.485
  49.640         45.00	     7.348
  49.660         47.50	     7.550
  49.680         42.50	     7.141
  49.700         52.50	     7.937
  49.720         38.33	     6.782
  49.740         36.67	     6.633
  49.760         40.83	     7.000
  49.780         40.83	     7.000
  49.800         47.50	     7.550
  49.820         43.33	     7.211
  49.840         24.17	     5.385
  49.860         40.00	     6.928
  49.880         38.33	     6.782
  49.900         44.17	     7.280
  49.920         32.50	     6.245
  49.940         44.17	     7.280
  49.960         36.67	     6.633
  49.980         35.83	     6.557
  50.000         65.83	     8.888
  50.020         38.33	     6.782
  50.040         53.33	     8.000
  50.060         51.67	     7.874
  50.080         50.00	     7.746
  50.100         52.50	     7.937
  50.120         61.67	     8.602
  50.140         75.00	     9.487
  50.160         61.67	     8.602
  50.180         72.50	     9.327
  50.200         66.67	     8.944
  50.220         70.00	     9.165
  50.240         83.33	    10.000
  50.260         87.50	    10.247
  50.280         80.00	     9.798
  50.300         93.33	    10.583
  50.320         96.67	    10.770
  50.340        130.83	    12.530
  50.360        155.83	    13.675
  50.380        173.33	    14.422
  50.400        256.67	    17.550
  50.420        283.33	    18.439
  50.440        246.67	    17.205
  50.460        191.67	    15.166
  50.480        141.67	    13.038
  50.500        120.83	    12.042
  50.520        116.67	    11.832
  50.540        138.33	    12.884
  50.560        155.00	    13.638
  50.580        103.33	    11.136
  50.600         67.50	     9.000
  50.620         72.50	     9.327
  50.640         52.50	     7.937
  50.660         32.50	     6.245
  50.680         52.50	     7.937
  50.700         42.50	     7.141
  50.720         45.83	     7.416
  50.740         46.67	     7.483
  50.760         33.33	     6.325
  50.780         45.00	     7.348
  50.800         47.50	     7.550
  50.820         60.00	     8.485
  50.840         65.00	     8.832
  50.860         70.00	     9.165
  50.880         70.00	     9.165
  50.900         59.17	     8.426
  50.920         58.33	     8.367
  50.940         66.67	     8.944
  50.960         58.33	     8.367
  50.980         71.67	     9.274
  51.000         61.67	     8.602
  51.020         57.50	     8.307
  51.040         71.67	     9.274
  51.060         62.50	     8.660
  51.080         60.83	     8.544
  51.100         50.83	     7.810
  51.120         45.83	     7.416
  51.140         43.33	     7.211
  51.160         43.33	     7.211
  51.180         26.67	     5.657
  51.200         44.17	     7.280
  51.220         29.17	     5.916
  51.240         22.50	     5.196
  51.260         36.67	     6.633
  51.280         34.17	     6.403
  51.300         45.83	     7.416
  51.320         29.17	     5.916
  51.340         36.67	     6.633
  51.360         49.17	     7.681
  51.380         50.00	     7.746
  51.400         56.67	     8.246
  51.420         64.17	     8.775
  51.440         60.83	     8.544
  51.460         55.00	     8.124
  51.480         53.33	     8.000
  51.500         61.67	     8.602
  51.520         57.50	     8.307
  51.540         66.67	     8.944
  51.560         60.00	     8.485
  51.580         55.00	     8.124
  51.600         59.17	     8.426
  51.620         54.17	     8.062
  51.640         55.00	     8.124
  51.660         50.00	     7.746
  51.680         45.83	     7.416
  51.700         39.17	     6.856
  51.720         35.83	     6.557
  51.740         50.00	     7.746
  51.760         32.50	     6.245
  51.780         27.50	     5.745
  51.800         30.83	     6.083
  51.820         32.50	     6.245
  51.840         30.00	     6.000
  51.860         40.00	     6.928
  51.880         27.50	     5.745
  51.900         32.50	     6.245
  51.920         24.17	     5.385
  51.940         33.33	     6.325
  51.960         25.00	     5.477
  51.980         28.33	     5.831
  52.000         25.00	     5.477
  52.020         31.67	     6.164
  52.040         25.00	     5.477
  52.060         27.50	     5.745
  52.080         33.33	     6.325
  52.100         21.67	     5.099
  52.120         23.33	     5.292
  52.140         27.50	     5.745
  52.160         21.67	     5.099
  52.180         33.33	     6.325
  52.200         29.17	     5.916
  52.220         40.00	     6.928
  52.240         25.83	     5.568
  52.260         38.33	     6.782
  52.280         26.67	     5.657
  52.300         28.33	     5.831
  52.320         30.00	     6.000
  52.340         31.67	     6.164
  52.360         24.17	     5.385
  52.380         37.50	     6.708
  52.400         35.83	     6.557
  52.420         43.33	     7.211
  52.440         43.33	     7.211
  52.460         40.00	     6.928
  52.480         44.17	     7.280
  52.500         35.83	     6.557
  52.520         45.00	     7.348
  52.540         40.83	     7.000
  52.560         34.17	     6.403
  52.580         42.50	     7.141
  52.600         35.00	     6.481
  52.620         39.17	     6.856
  52.640         44.17	     7.280
  52.660         41.67	     7.071
  52.680         51.67	     7.874
  52.700         39.17	     6.856
  52.720         45.00	     7.348
  52.740         51.67	     7.874
  52.760         44.17	     7.280
  52.780         58.33	     8.367
  52.800         45.00	     7.348
  52.820         40.83	     7.000
  52.840         50.83	     7.810
  52.860         50.00	     7.746
  52.880         47.50	     7.550
  52.900         50.83	     7.810
  52.920         31.67	     6.164
  52.940         53.33	     8.000
  52.960         53.33	     8.000
  52.980         69.17	     9.110
  53.000         55.00	     8.124
  53.020         48.33	     7.616
  53.040         53.33	     8.000
  53.060         53.33	     8.000
  53.080         47.50	     7.550
  53.100         57.50	     8.307
  53.120         81.67	     9.899
  53.140         62.50	     8.660
  53.160         60.00	     8.485
  53.180         61.67	     8.602
  53.200         48.33	     7.616
  53.220         68.33	     9.055
  53.240         76.67	     9.592
  53.260         56.67	     8.246
  53.280         69.17	     9.110
  53.300         65.83	     8.888
  53.320         55.00	     8.124
  53.340         58.33	     8.367
  53.360         60.83	     8.544
  53.380         64.17	     8.775
  53.400         59.17	     8.426
  53.420         70.83	     9.220
  53.440         55.00	     8.124
  53.460         61.67	     8.602
  53.480         52.50	     7.937
  53.500         56.67	     8.246
  53.520         41.67	     7.071
  53.540         68.33	     9.055
  53.560         40.83	     7.000
  53.580         49.17	     7.681
  53.600         52.50	     7.937
  53.620         51.67	     7.874
  53.640         57.50	     8.307
  53.660         45.83	     7.416
  53.680         47.50	     7.550
  53.700         54.17	     8.062
  53.720         45.83	     7.416
  53.740         44.17	     7.280
  53.760         55.83	     8.185
  53.780         44.17	     7.280
  53.800         44.17	     7.280
  53.820         38.33	     6.782
  53.840         36.67	     6.633
  53.860         36.67	     6.633
  53.880         46.67	     7.483
  53.900         44.17	     7.280
  53.920         32.50	     6.245
  53.940         36.67	     6.633
  53.960         33.33	     6.325
  53.980         34.17	     6.403
  54.000         41.67	     7.071
  54.020         35.00	     6.481
  54.040         43.33	     7.211
  54.060         44.17	     7.280
  54.080         38.33	     6.782
  54.100         42.50	     7.141
  54.120         45.83	     7.416
  54.140         34.17	     6.403
  54.160         31.67	     6.164
  54.180         37.50	     6.708
  54.200         28.33	     5.831
  54.220         40.83	     7.000
  54.240         37.50	     6.708
  54.260         39.17	     6.856
  54.280         30.83	     6.083
  54.300         38.33	     6.782
  54.320         32.50	     6.245
  54.340         42.50	     7.141
  54.360         53.33	     8.000
  54.380         40.83	     7.000
  54.400         38.33	     6.782
  54.420         40.83	     7.000
  54.440         40.83	     7.000
  54.460         32.50	     6.245
  54.480         35.83	     6.557
  54.500         40.83	     7.000
  54.520         37.50	     6.708
  54.540         48.33	     7.616
  54.560         59.17	     8.426
  54.580         48.33	     7.616
  54.600         55.83	     8.185
  54.620         68.33	     9.055
  54.640         57.50	     8.307
  54.660         56.67	     8.246
  54.680         57.50	     8.307
  54.700         57.50	     8.307
  54.720         65.83	     8.888
  54.740         53.33	     8.000
  54.760         56.67	     8.246
  54.780         57.50	     8.307
  54.800         70.83	     9.220
  54.820         50.00	     7.746
  54.840         55.83	     8.185
  54.860         56.67	     8.246
  54.880         55.83	     8.185
  54.900         45.83	     7.416
  54.920         54.17	     8.062
  54.940         62.50	     8.660
  54.960         56.67	     8.246
  54.980         57.50	     8.307
  55.000         66.67	     8.944
  55.020         66.67	     8.944
  55.040         58.33	     8.367
  55.060         80.83	     9.849
  55.080         77.50	     9.644
  55.100         95.83	    10.724
  55.120        108.33	    11.402
  55.140        112.50	    11.619
  55.160        108.33	    11.402
  55.180         74.17	     9.434
  55.200         85.83	    10.149
  55.220         77.50	     9.644
  55.240         70.83	     9.220
  55.260         66.67	     8.944
  55.280         84.17	    10.050
  55.300         89.17	    10.344
  55.320         81.67	     9.899
  55.340         55.83	     8.185
  55.360         72.50	     9.327
  55.380         52.50	     7.937
  55.400         53.33	     8.000
  55.420         62.50	     8.660
  55.440         64.17	     8.775
  55.460         77.50	     9.644
  55.480         68.33	     9.055
  55.500         75.83	     9.539
  55.520         75.83	     9.539
  55.540         81.67	     9.899
  55.560         95.83	    10.724
  55.580         90.00	    10.392
  55.600         99.17	    10.909
  55.620         95.83	    10.724
  55.640         85.00	    10.100
  55.660         87.50	    10.247
  55.680         60.83	     8.544
  55.700         72.50	     9.327
  55.720         81.67	     9.899
  55.740         78.33	     9.695
  55.760         70.83	     9.220
  55.780         61.67	     8.602
  55.800         75.83	     9.539
  55.820         67.50	     9.000
  55.840         76.67	     9.592
  55.860         82.50	     9.950
  55.880         68.33	     9.055
  55.900         70.83	     9.220
  55.920         93.33	    10.583
  55.940         85.83	    10.149
  55.960         76.67	     9.592
  55.980         91.67	    10.488
  56.000         85.83	    10.149
  56.020         97.50	    10.817
  56.040        112.50	    11.619
  56.060        118.33	    11.916
  56.080        115.83	    11.790
  56.100        115.83	    11.790
  56.120        116.67	    11.832
  56.140         90.83	    10.440
  56.160        100.83	    11.000
  56.180         91.67	    10.488
  56.200         92.50	    10.536
  56.220         84.17	    10.050
  56.240         94.17	    10.630
  56.260         90.83	    10.440
  56.280         71.67	     9.274
  56.300         79.17	     9.747
  56.320         60.00	     8.485
  56.340         57.50	     8.307
  56.360         50.00	     7.746
  56.380         68.33	     9.055
  56.400         56.67	     8.246
  56.420         50.00	     7.746
  56.440         42.50	     7.141
  56.460         54.17	     8.062
  56.480         57.50	     8.307
  56.500         48.33	     7.616
  56.520         38.33	     6.782
  56.540         44.17	     7.280
  56.560         43.33	     7.211
  56.580         52.50	     7.937
  56.600         33.33	     6.325
  56.620         40.00	     6.928
  56.640         44.17	     7.280
  56.660         46.67	     7.483
  56.680         44.17	     7.280
  56.700         36.67	     6.633
  56.720         33.33	     6.325
  56.740         27.50	     5.745
  56.760         39.17	     6.856
  56.780         28.33	     5.831
  56.800         29.17	     5.916
  56.820         36.67	     6.633
  56.840         39.17	     6.856
  56.860         32.50	     6.245
  56.880         30.00	     6.000
  56.900         29.17	     5.916
  56.920         30.00	     6.000
  56.940         31.67	     6.164
  56.960         41.67	     7.071
  56.980         40.00	     6.928
  57.000         40.00	     6.928
  57.020         50.83	     7.810
  57.040         50.00	     7.746
  57.060         35.00	     6.481
  57.080         50.83	     7.810
  57.100         44.17	     7.280
  57.120         35.00	     6.481
  57.140         28.33	     5.831
  57.160         46.67	     7.483
  57.180         42.50	     7.141
  57.200         42.50	     7.141
  57.220         39.17	     6.856
  57.240         42.50	     7.141
  57.260         40.00	     6.928
  57.280         36.67	     6.633
  57.300         45.00	     7.348
  57.320         41.67	     7.071
  57.340         47.50	     7.550
  57.360         38.33	     6.782
  57.380         45.00	     7.348
  57.400         33.33	     6.325
  57.420         35.83	     6.557
  57.440         36.67	     6.633
  57.460         43.33	     7.211
  57.480         56.67	     8.246
  57.500         44.17	     7.280
  57.520         40.83	     7.000
  57.540         40.83	     7.000
  57.560         46.67	     7.483
  57.580         38.33	     6.782
  57.600         43.33	     7.211
  57.620         45.83	     7.416
  57.640         45.83	     7.416
  57.660         38.33	     6.782
  57.680         40.83	     7.000
  57.700         45.00	     7.348
  57.720         46.67	     7.483
  57.740         41.67	     7.071
  57.760         42.50	     7.141
  57.780         50.83	     7.810
  57.800         50.83	     7.810
  57.820         38.33	     6.782
  57.840         55.83	     8.185
  57.860         39.17	     6.856
  57.880         34.17	     6.403
  57.900         39.17	     6.856
  57.920         30.00	     6.000
  57.940         37.50	     6.708
  57.960         54.17	     8.062
  57.980         46.67	     7.483
  58.000         35.00	     6.481
  58.020         35.00	     6.481
  58.040         38.33	     6.782
  58.060         41.67	     7.071
  58.080         45.00	     7.348
  58.100         30.83	     6.083
  58.120         40.00	     6.928
  58.140         34.17	     6.403
  58.160         25.83	     5.568
  58.180         38.33	     6.782
  58.200         27.50	     5.745
  58.220         33.33	     6.325
  58.240         38.33	     6.782
  58.260         54.17	     8.062
  58.280         50.00	     7.746
  58.300         48.33	     7.616
  58.320         36.67	     6.633
  58.340         35.83	     6.557
  58.360         36.67	     6.633
  58.380         46.67	     7.483
  58.400         30.00	     6.000
  58.420         38.33	     6.782
  58.440         39.17	     6.856
  58.460         43.33	     7.211
  58.480         38.33	     6.782
  58.500         48.33	     7.616
  58.520         41.67	     7.071
  58.540         43.33	     7.211
  58.560         27.50	     5.745
  58.580         50.00	     7.746
  58.600         32.50	     6.245
  58.620         42.50	     7.141
  58.640         43.33	     7.211
  58.660         30.83	     6.083
  58.680         41.67	     7.071
  58.700         37.50	     6.708
  58.720         34.17	     6.403
  58.740         35.83	     6.557
  58.760         42.50	     7.141
  58.780         46.67	     7.483
  58.800         39.17	     6.856
  58.820         52.50	     7.937
  58.840         45.00	     7.348
  58.860         49.17	     7.681
  58.880         55.83	     8.185
  58.900         55.83	     8.185
  58.920         57.50	     8.307
  58.940         57.50	     8.307
  58.960         58.33	     8.367
  58.980         61.67	     8.602
  59.000         57.50	     8.307
  59.020         70.00	     9.165
  59.040         47.50	     7.550
  59.060         45.83	     7.416
  59.080         45.83	     7.416
  59.100         40.83	     7.000
  59.120         55.00	     8.124
  59.140         48.33	     7.616
  59.160         60.00	     8.485
  59.180         64.17	     8.775
  59.200         68.33	     9.055
  59.220         58.33	     8.367
  59.240         65.00	     8.832
  59.260         71.67	     9.274
  59.280         63.33	     8.718
  59.300         69.17	     9.110
  59.320         72.50	     9.327
  59.340         57.50	     8.307
  59.360         55.83	     8.185
  59.380         50.83	     7.810
  59.400         50.00	     7.746
  59.420         79.17	     9.747
  59.440         86.67	    10.198
  59.460         56.67	     8.246
  59.480         65.00	     8.832
  59.500         64.17	     8.775
  59.520         63.33	     8.718
  59.540         54.17	     8.062
  59.560         56.67	     8.246
  59.580         50.83	     7.810
  59.600         50.00	     7.746
  59.620         50.83	     7.810
  59.640         74.17	     9.434
  59.660         59.17	     8.426
  59.680         58.33	     8.367
  59.700         55.00	     8.124
  59.720         73.33	     9.381
  59.740         55.83	     8.185
  59.760         48.33	     7.616
  59.780         52.50	     7.937
  59.800         45.83	     7.416
  59.820         38.33	     6.782
  59.840         40.83	     7.000
  59.860         49.17	     7.681
  59.880         65.83	     8.888
  59.900         45.83	     7.416
  59.920         52.50	     7.937
  59.940         60.83	     8.544
  59.960         55.83	     8.185
  59.980         54.17	     8.062
  60.000         52.50	     7.937
  60.020         64.17	     8.775
  60.040         45.83	     7.416
  60.060         70.83	     9.220
  60.080         80.83	     9.849
  60.100         78.33	     9.695
  60.120         79.17	     9.747
  60.140         89.17	    10.344
  60.160        112.50	    11.619
  60.180        159.17	    13.820
  60.200        205.83	    15.716
  60.220        215.83	    16.093
  60.240        198.33	    15.427
  60.260        171.67	    14.353
  60.280        137.50	    12.845
  60.300        115.83	    11.790
  60.320        100.00	    10.954
  60.340        108.33	    11.402
  60.360        147.50	    13.304
  60.380        141.67	    13.038
  60.400        115.83	    11.790
  60.420        109.17	    11.446
  60.440         80.83	     9.849
  60.460         77.50	     9.644
  60.480         76.67	     9.592
  60.500         76.67	     9.592
  60.520         82.50	     9.950
  60.540         75.00	     9.487
  60.560         65.83	     8.888
  60.580         66.67	     8.944
  60.600         60.00	     8.485
  60.620         52.50	     7.937
  60.640         51.67	     7.874
  60.660         51.67	     7.874
  60.680         52.50	     7.937
  60.700         70.00	     9.165
  60.720         52.50	     7.937
  60.740         46.67	     7.483
  60.760         45.83	     7.416
  60.780         52.50	     7.937
  60.800         52.50	     7.937
  60.820         47.50	     7.550
  60.840         57.50	     8.307
  60.860         52.50	     7.937
  60.880         55.00	     8.124
  60.900         63.33	     8.718
  60.920         61.67	     8.602
  60.940         59.17	     8.426
  60.960         55.00	     8.124
  60.980         76.67	     9.592
  61.000         94.17	    10.630
  61.020         76.67	     9.592
  61.040         78.33	     9.695
  61.060         57.50	     8.307
  61.080         65.83	     8.888
  61.100         75.00	     9.487
  61.120         71.67	     9.274
  61.140         80.83	     9.849
  61.160         79.17	     9.747
  61.180         76.67	     9.592
  61.200         64.17	     8.775
  61.220         68.33	     9.055
  61.240         63.33	     8.718
  61.260         50.83	     7.810
  61.280         61.67	     8.602
  61.300         50.83	     7.810
  61.320         67.50	     9.000
  61.340         65.83	     8.888
  61.360         62.50	     8.660
  61.380         63.33	     8.718
  61.400         68.33	     9.055
  61.420         60.00	     8.485
  61.440         58.33	     8.367
  61.460         60.00	     8.485
  61.480         53.33	     8.000
  61.500         70.83	     9.220
  61.520         63.33	     8.718
  61.540         63.33	     8.718
  61.560         51.67	     7.874
  61.580         46.67	     7.483
  61.600         73.33	     9.381
  61.620         71.67	     9.274
  61.640         78.33	     9.695
  61.660         69.17	     9.110
  61.680         86.67	    10.198
  61.700         68.33	     9.055
  61.720         65.00	     8.832
  61.740         77.50	     9.644
  61.760         86.67	    10.198
  61.780         89.17	    10.344
  61.800        105.83	    11.269
  61.820         87.50	    10.247
  61.840         96.67	    10.770
  61.860         89.17	    10.344
  61.880         92.50	    10.536
  61.900         64.17	     8.775
  61.920        106.67	    11.314
  61.940         87.50	    10.247
  61.960         87.50	    10.247
  61.980         94.17	    10.630
  62.000         90.00	    10.392
  62.020         77.50	     9.644
  62.040         71.67	     9.274
  62.060         70.00	     9.165
  62.080         59.17	     8.426
  62.100         49.17	     7.681
  62.120         73.33	     9.381
  62.140         51.67	     7.874
  62.160         68.33	     9.055
  62.180         64.17	     8.775
  62.200         55.83	     8.185
  62.220         55.83	     8.185
  62.240         47.50	     7.550
  62.260         51.67	     7.874
  62.280         43.33	     7.211
  62.300         46.67	     7.483
  62.320         44.17	     7.280
  62.340         40.00	     6.928
  62.360         44.17	     7.280
  62.380         48.33	     7.616
  62.400         40.00	     6.928
  62.420         48.33	     7.616
  62.440         45.83	     7.416
  62.460         37.50	     6.708
  62.480         33.33	     6.325
  62.500         35.83	     6.557
  62.520         38.33	     6.782
  62.540         49.17	     7.681
  62.560         39.17	     6.856
  62.580         38.33	     6.782
  62.600         48.33	     7.616
  62.620         32.50	     6.245
  62.640         37.50	     6.708
  62.660         37.50	     6.708
  62.680         41.67	     7.071
  62.700         33.33	     6.325
  62.720         51.67	     7.874
  62.740         30.83	     6.083
  62.760         44.17	     7.280
  62.780         27.50	     5.745
  62.800         42.50	     7.141
  62.820         43.33	     7.211
  62.840         47.50	     7.550
  62.860         33.33	     6.325
  62.880         45.83	     7.416
  62.900         42.50	     7.141
  62.920         32.50	     6.245
  62.940         38.33	     6.782
  62.960         38.33	     6.782
  62.980         41.67	     7.071
  63.000         33.33	     6.325
  63.020         47.50	     7.550
  63.040         40.00	     6.928
  63.060         50.00	     7.746
  63.080         40.83	     7.000
  63.100         40.00	     6.928
  63.120         48.33	     7.616
  63.140         40.83	     7.000
  63.160         52.50	     7.937
  63.180         45.83	     7.416
  63.200         37.50	     6.708
  63.220         41.67	     7.071
  63.240         46.67	     7.483
  63.260         41.67	     7.071
  63.280         40.00	     6.928
  63.300         38.33	     6.782
  63.320         35.00	     6.481
  63.340         41.67	     7.071
  63.360         40.83	     7.000
  63.380         50.83	     7.810
  63.400         46.67	     7.483
  63.420         37.50	     6.708
  63.440         42.50	     7.141
  63.460         39.17	     6.856
  63.480         36.67	     6.633
  63.500         36.67	     6.633
  63.520         50.83	     7.810
  63.540         39.17	     6.856
  63.560         41.67	     7.071
  63.580         49.17	     7.681
  63.600         39.17	     6.856
  63.620         49.17	     7.681
  63.640         30.00	     6.000
  63.660         43.33	     7.211
  63.680         46.67	     7.483
  63.700         34.17	     6.403
  63.720         43.33	     7.211
  63.740         35.00	     6.481
  63.760         37.50	     6.708
  63.780         49.17	     7.681
  63.800         41.67	     7.071
  63.820         40.83	     7.000
  63.840         45.00	     7.348
  63.860         37.50	     6.708
  63.880         41.67	     7.071
  63.900         39.17	     6.856
  63.920         52.50	     7.937
  63.940         50.83	     7.810
  63.960         43.33	     7.211
  63.980         49.17	     7.681
  64.000         50.00	     7.746
  64.020         52.50	     7.937
  64.040         65.83	     8.888
  64.060         45.00	     7.348
  64.080         70.83	     9.220
  64.100         53.33	     8.000
  64.120         46.67	     7.483
  64.140         59.17	     8.426
  64.160         57.50	     8.307
  64.180         59.17	     8.426
  64.200         60.83	     8.544
  64.220         52.50	     7.937
  64.240         69.17	     9.110
  64.260         70.83	     9.220
  64.280         81.67	     9.899
  64.300         78.33	     9.695
  64.320         77.50	     9.644
  64.340         72.50	     9.327
  64.360         55.83	     8.185
  64.380         50.83	     7.810
  64.400         55.83	     8.185
  64.420         58.33	     8.367
  64.440         64.17	     8.775
  64.460         55.00	     8.124
  64.480         50.00	     7.746
  64.500         56.67	     8.246
  64.520         40.83	     7.000
  64.540         50.83	     7.810
  64.560         32.50	     6.245
  64.580         45.83	     7.416
  64.600         40.00	     6.928
  64.620         48.33	     7.616
  64.640         40.00	     6.928
  64.660         30.00	     6.000
  64.680         40.83	     7.000
  64.700         42.50	     7.141
  64.720         39.17	     6.856
  64.740         40.83	     7.000
  64.760         48.33	     7.616
  64.780         39.17	     6.856
  64.800         35.83	     6.557
  64.820         43.33	     7.211
  64.840         38.33	     6.782
  64.860         45.00	     7.348
  64.880         43.33	     7.211
  64.900         40.83	     7.000
  64.920         51.67	     7.874
  64.940         37.50	     6.708
  64.960         38.33	     6.782
  64.980         49.17	     7.681
  65.000         55.00	     8.124
