
Filename:
	C:\Program Files\Thermo Electron\WinXRD\Datafiles\F_HERMAN\GEO\GG_6_SFT.raw

File Created:
	October 13, 2020 - 11:31 AM

Specimen Id:
	GG6 SFT

Specimen Name:
	

Specimen Description:
	

Comment:
Scan Type: 2Theta Scan
Start Angle: 3 deg.
Stop Angle: 65 deg.
Num Points: 3101
Step Size: 0.02 deg.
Scan Rate: 1.000000
Scan Mode: Continuous
Wavelength: 1.540562
\Kalpha1: 1.540562	\Kalpha2: 1.544390	\Kbeta: 1.392218

Optics:
		Detector:
			 Type: Fixed Slits
		Tube: 
			 Type: Fixed Slits


Datas:
 Pos [deg]       Rate [CPS]      ESD [-]

Range 1 ---> Iteration 1
   3.000        370.00	    21.071
   3.020        324.17	    19.723
   3.040        369.17	    21.048
   3.060        325.83	    19.774
   3.080        335.83	    20.075
   3.100        372.50	    21.142
   3.120        362.50	    20.857
   3.140        316.67	    19.494
   3.160        325.00	    19.748
   3.180        311.67	    19.339
   3.200        345.83	    20.372
   3.220        354.17	    20.616
   3.240        369.17	    21.048
   3.260        345.83	    20.372
   3.280        310.83	    19.313
   3.300        362.50	    20.857
   3.320        330.00	    19.900
   3.340        328.33	    19.849
   3.360        343.33	    20.298
   3.380        330.00	    19.900
   3.400        286.67	    18.547
   3.420        314.17	    19.416
   3.440        310.83	    19.313
   3.460        365.83	    20.952
   3.480        295.83	    18.841
   3.500        305.83	    19.157
   3.520        282.50	    18.412
   3.540        301.67	    19.026
   3.560        273.33	    18.111
   3.580        255.83	    17.521
   3.600        300.83	    19.000
   3.620        286.67	    18.547
   3.640        293.33	    18.762
   3.660        269.17	    17.972
   3.680        296.67	    18.868
   3.700        283.33	    18.439
   3.720        265.00	    17.833
   3.740        277.50	    18.248
   3.760        273.33	    18.111
   3.780        260.83	    17.692
   3.800        294.17	    18.788
   3.820        273.33	    18.111
   3.840        280.83	    18.358
   3.860        303.33	    19.079
   3.880        275.83	    18.193
   3.900        276.67	    18.221
   3.920        286.67	    18.547
   3.940        295.00	    18.815
   3.960        279.17	    18.303
   3.980        258.33	    17.607
   4.000        259.17	    17.635
   4.020        233.33	    16.733
   4.040        234.17	    16.763
   4.060        248.33	    17.263
   4.080        236.67	    16.852
   4.100        250.00	    17.321
   4.120        245.00	    17.146
   4.140        240.00	    16.971
   4.160        249.17	    17.292
   4.180        267.50	    17.916
   4.200        257.50	    17.578
   4.220        254.17	    17.464
   4.240        237.50	    16.882
   4.260        224.17	    16.401
   4.280        250.83	    17.349
   4.300        235.00	    16.793
   4.320        239.17	    16.941
   4.340        205.00	    15.684
   4.360        227.50	    16.523
   4.380        240.83	    17.000
   4.400        218.33	    16.186
   4.420        223.33	    16.371
   4.440        229.17	    16.583
   4.460        207.50	    15.780
   4.480        205.00	    15.684
   4.500        205.00	    15.684
   4.520        230.00	    16.613
   4.540        247.50	    17.234
   4.560        223.33	    16.371
   4.580        195.00	    15.297
   4.600        215.83	    16.093
   4.620        216.67	    16.125
   4.640        195.83	    15.330
   4.660        236.67	    16.852
   4.680        217.50	    16.155
   4.700        185.83	    14.933
   4.720        210.00	    15.875
   4.740        195.83	    15.330
   4.760        211.67	    15.937
   4.780        208.33	    15.811
   4.800        189.17	    15.067
   4.820        191.67	    15.166
   4.840        200.00	    15.492
   4.860        198.33	    15.427
   4.880        190.00	    15.100
   4.900        207.50	    15.780
   4.920        200.83	    15.524
   4.940        190.83	    15.133
   4.960        199.17	    15.460
   4.980        182.50	    14.799
   5.000        192.50	    15.199
   5.020        185.83	    14.933
   5.040        182.50	    14.799
   5.060        180.83	    14.731
   5.080        189.17	    15.067
   5.100        190.00	    15.100
   5.120        176.67	    14.560
   5.140        182.50	    14.799
   5.160        170.83	    14.318
   5.180        182.50	    14.799
   5.200        170.83	    14.318
   5.220        184.17	    14.866
   5.240        171.67	    14.353
   5.260        180.83	    14.731
   5.280        187.50	    15.000
   5.300        158.33	    13.784
   5.320        171.67	    14.353
   5.340        194.17	    15.264
   5.360        190.00	    15.100
   5.380        167.50	    14.177
   5.400        172.50	    14.387
   5.420        172.50	    14.387
   5.440        169.17	    14.248
   5.460        189.17	    15.067
   5.480        168.33	    14.213
   5.500        165.83	    14.107
   5.520        165.83	    14.107
   5.540        181.67	    14.765
   5.560        200.00	    15.492
   5.580        176.67	    14.560
   5.600        176.67	    14.560
   5.620        164.17	    14.036
   5.640        140.83	    13.000
   5.660        174.17	    14.457
   5.680        169.17	    14.248
   5.700        170.83	    14.318
   5.720        146.67	    13.266
   5.740        160.00	    13.856
   5.760        166.67	    14.142
   5.780        168.33	    14.213
   5.800        161.67	    13.928
   5.820        169.17	    14.248
   5.840        180.00	    14.697
   5.860        165.83	    14.107
   5.880        201.67	    15.556
   5.900        175.00	    14.491
   5.920        180.83	    14.731
   5.940        170.83	    14.318
   5.960        180.83	    14.731
   5.980        161.67	    13.928
   6.000        158.33	    13.784
   6.020        180.00	    14.697
   6.040        193.33	    15.232
   6.060        176.67	    14.560
   6.080        179.17	    14.663
   6.100        175.83	    14.526
   6.120        190.00	    15.100
   6.140        201.67	    15.556
   6.160        211.67	    15.937
   6.180        204.17	    15.652
   6.200        186.67	    14.967
   6.220        221.67	    16.310
   6.240        206.67	    15.748
   6.260        213.33	    16.000
   6.280        212.50	    15.969
   6.300        208.33	    15.811
   6.320        235.83	    16.823
   6.340        272.50	    18.083
   6.360        281.67	    18.385
   6.380        264.17	    17.804
   6.400        268.33	    17.944
   6.420        250.00	    17.321
   6.440        232.50	    16.703
   6.460        200.83	    15.524
   6.480        182.50	    14.799
   6.500        203.33	    15.620
   6.520        161.67	    13.928
   6.540        140.83	    13.000
   6.560        169.17	    14.248
   6.580        168.33	    14.213
   6.600        166.67	    14.142
   6.620        147.50	    13.304
   6.640        150.83	    13.454
   6.660        155.83	    13.675
   6.680        150.83	    13.454
   6.700        127.50	    12.369
   6.720        144.17	    13.153
   6.740        132.50	    12.610
   6.760        147.50	    13.304
   6.780        131.67	    12.570
   6.800        146.67	    13.266
   6.820        140.00	    12.961
   6.840        140.83	    13.000
   6.860        136.67	    12.806
   6.880        130.83	    12.530
   6.900        149.17	    13.379
   6.920        158.33	    13.784
   6.940        125.83	    12.288
   6.960        150.00	    13.416
   6.980        144.17	    13.153
   7.000        155.00	    13.638
   7.020        125.83	    12.288
   7.040        127.50	    12.369
   7.060        132.50	    12.610
   7.080        140.83	    13.000
   7.100        153.33	    13.565
   7.120        142.50	    13.077
   7.140        135.83	    12.767
   7.160        142.50	    13.077
   7.180        133.33	    12.649
   7.200        128.33	    12.410
   7.220        135.83	    12.767
   7.240        150.00	    13.416
   7.260        134.17	    12.689
   7.280        155.83	    13.675
   7.300        131.67	    12.570
   7.320        105.00	    11.225
   7.340        144.17	    13.153
   7.360        130.00	    12.490
   7.380        149.17	    13.379
   7.400        117.50	    11.874
   7.420        130.00	    12.490
   7.440        114.17	    11.705
   7.460        135.83	    12.767
   7.480        142.50	    13.077
   7.500        122.50	    12.124
   7.520        135.00	    12.728
   7.540        117.50	    11.874
   7.560        122.50	    12.124
   7.580        127.50	    12.369
   7.600        141.67	    13.038
   7.620        130.83	    12.530
   7.640        115.00	    11.747
   7.660        138.33	    12.884
   7.680        119.17	    11.958
   7.700        126.67	    12.329
   7.720        125.00	    12.247
   7.740        127.50	    12.369
   7.760        120.83	    12.042
   7.780        115.00	    11.747
   7.800        136.67	    12.806
   7.820        119.17	    11.958
   7.840        115.00	    11.747
   7.860        118.33	    11.916
   7.880        126.67	    12.329
   7.900        116.67	    11.832
   7.920        136.67	    12.806
   7.940        116.67	    11.832
   7.960        119.17	    11.958
   7.980        139.17	    12.923
   8.000        131.67	    12.570
   8.020        126.67	    12.329
   8.040        121.67	    12.083
   8.060        125.83	    12.288
   8.080        123.33	    12.166
   8.100        140.00	    12.961
   8.120        123.33	    12.166
   8.140        140.00	    12.961
   8.160        126.67	    12.329
   8.180        127.50	    12.369
   8.200        126.67	    12.329
   8.220        125.83	    12.288
   8.240        127.50	    12.369
   8.260        124.17	    12.207
   8.280        143.33	    13.115
   8.300        111.67	    11.576
   8.320        142.50	    13.077
   8.340        145.83	    13.229
   8.360        158.33	    13.784
   8.380        143.33	    13.115
   8.400        140.00	    12.961
   8.420        127.50	    12.369
   8.440        133.33	    12.649
   8.460        140.83	    13.000
   8.480        130.83	    12.530
   8.500        143.33	    13.115
   8.520        143.33	    13.115
   8.540        130.83	    12.530
   8.560        163.33	    14.000
   8.580        171.67	    14.353
   8.600        177.50	    14.595
   8.620        144.17	    13.153
   8.640        165.83	    14.107
   8.660        193.33	    15.232
   8.680        163.33	    14.000
   8.700        164.17	    14.036
   8.720        175.83	    14.526
   8.740        204.17	    15.652
   8.760        190.83	    15.133
   8.780        213.33	    16.000
   8.800        208.33	    15.811
   8.820        275.00	    18.166
   8.840        275.00	    18.166
   8.860        290.00	    18.655
   8.880        301.67	    19.026
   8.900        322.50	    19.672
   8.920        340.00	    20.199
   8.940        361.67	    20.833
   8.960        429.17	    22.694
   8.980        465.00	    23.622
   9.000        554.17	    25.788
   9.020        603.33	    26.907
   9.040        616.67	    27.203
   9.060        586.67	    26.533
   9.080        528.33	    25.179
   9.100        353.33	    20.591
   9.120        261.67	    17.720
   9.140        223.33	    16.371
   9.160        189.17	    15.067
   9.180        147.50	    13.304
   9.200        154.17	    13.601
   9.220        154.17	    13.601
   9.240        155.00	    13.638
   9.260        133.33	    12.649
   9.280        125.83	    12.288
   9.300        131.67	    12.570
   9.320        132.50	    12.610
   9.340        132.50	    12.610
   9.360        130.00	    12.490
   9.380        125.00	    12.247
   9.400        118.33	    11.916
   9.420        110.83	    11.533
   9.440        115.00	    11.747
   9.460        112.50	    11.619
   9.480        121.67	    12.083
   9.500        112.50	    11.619
   9.520        116.67	    11.832
   9.540        102.50	    11.091
   9.560        142.50	    13.077
   9.580        122.50	    12.124
   9.600        145.83	    13.229
   9.620        113.33	    11.662
   9.640        105.83	    11.269
   9.660        100.83	    11.000
   9.680        108.33	    11.402
   9.700        106.67	    11.314
   9.720         94.17	    10.630
   9.740         95.00	    10.677
   9.760         90.00	    10.392
   9.780         85.83	    10.149
   9.800         80.00	     9.798
   9.820         90.00	    10.392
   9.840        100.83	    11.000
   9.860         94.17	    10.630
   9.880         65.83	     8.888
   9.900         87.50	    10.247
   9.920         92.50	    10.536
   9.940         67.50	     9.000
   9.960         89.17	    10.344
   9.980         96.67	    10.770
  10.000         93.33	    10.583
  10.020         98.33	    10.863
  10.040         84.17	    10.050
  10.060         79.17	     9.747
  10.080         99.17	    10.909
  10.100         87.50	    10.247
  10.120         83.33	    10.000
  10.140         77.50	     9.644
  10.160         73.33	     9.381
  10.180         86.67	    10.198
  10.200        100.00	    10.954
  10.220         83.33	    10.000
  10.240         80.00	     9.798
  10.260         74.17	     9.434
  10.280         75.83	     9.539
  10.300         87.50	    10.247
  10.320         90.00	    10.392
  10.340         83.33	    10.000
  10.360         71.67	     9.274
  10.380         66.67	     8.944
  10.400         91.67	    10.488
  10.420         79.17	     9.747
  10.440        102.50	    11.091
  10.460         82.50	     9.950
  10.480         80.00	     9.798
  10.500         87.50	    10.247
  10.520         86.67	    10.198
  10.540         86.67	    10.198
  10.560         78.33	     9.695
  10.580        106.67	    11.314
  10.600        110.83	    11.533
  10.620         95.00	    10.677
  10.640        121.67	    12.083
  10.660        115.00	    11.747
  10.680        139.17	    12.923
  10.700        130.83	    12.530
  10.720         91.67	    10.488
  10.740         97.50	    10.817
  10.760         90.83	    10.440
  10.780         83.33	    10.000
  10.800         75.83	     9.539
  10.820         88.33	    10.296
  10.840         75.00	     9.487
  10.860         71.67	     9.274
  10.880         67.50	     9.000
  10.900         74.17	     9.434
  10.920         62.50	     8.660
  10.940         72.50	     9.327
  10.960         71.67	     9.274
  10.980         75.83	     9.539
  11.000         78.33	     9.695
  11.020         73.33	     9.381
  11.040         90.00	    10.392
  11.060         68.33	     9.055
  11.080         72.50	     9.327
  11.100         57.50	     8.307
  11.120         69.17	     9.110
  11.140         69.17	     9.110
  11.160         70.00	     9.165
  11.180         62.50	     8.660
  11.200         85.83	    10.149
  11.220         69.17	     9.110
  11.240         72.50	     9.327
  11.260         65.00	     8.832
  11.280         73.33	     9.381
  11.300         66.67	     8.944
  11.320         74.17	     9.434
  11.340         62.50	     8.660
  11.360         58.33	     8.367
  11.380         69.17	     9.110
  11.400         80.83	     9.849
  11.420         55.83	     8.185
  11.440         76.67	     9.592
  11.460         64.17	     8.775
  11.480         67.50	     9.000
  11.500         51.67	     7.874
  11.520         70.83	     9.220
  11.540         75.00	     9.487
  11.560         82.50	     9.950
  11.580         72.50	     9.327
  11.600         80.00	     9.798
  11.620         75.00	     9.487
  11.640         63.33	     8.718
  11.660         79.17	     9.747
  11.680         64.17	     8.775
  11.700         68.33	     9.055
  11.720         81.67	     9.899
  11.740         59.17	     8.426
  11.760         95.83	    10.724
  11.780         75.00	     9.487
  11.800         75.00	     9.487
  11.820         65.83	     8.888
  11.840         72.50	     9.327
  11.860         80.00	     9.798
  11.880         78.33	     9.695
  11.900         84.17	    10.050
  11.920         75.83	     9.539
  11.940         87.50	    10.247
  11.960         81.67	     9.899
  11.980         83.33	    10.000
  12.000         74.17	     9.434
  12.020         92.50	    10.536
  12.040         87.50	    10.247
  12.060         82.50	     9.950
  12.080         77.50	     9.644
  12.100         80.00	     9.798
  12.120         99.17	    10.909
  12.140         85.00	    10.100
  12.160        104.17	    11.180
  12.180         83.33	    10.000
  12.200        120.83	    12.042
  12.220        131.67	    12.570
  12.240        137.50	    12.845
  12.260        165.00	    14.071
  12.280        209.17	    15.843
  12.300        285.83	    18.520
  12.320        380.83	    21.378
  12.340        466.67	    23.664
  12.360        490.83	    24.269
  12.380        505.83	    24.637
  12.400        382.50	    21.424
  12.420        312.50	    19.365
  12.440        270.00	    18.000
  12.460        234.17	    16.763
  12.480        214.17	    16.031
  12.500        221.67	    16.310
  12.520        251.67	    17.378
  12.540        257.50	    17.578
  12.560        294.17	    18.788
  12.580        317.50	    19.519
  12.600        368.33	    21.024
  12.620        440.83	    23.000
  12.640        490.83	    24.269
  12.660        494.17	    24.352
  12.680        455.00	    23.367
  12.700        386.67	    21.541
  12.720        288.33	    18.601
  12.740        216.67	    16.125
  12.760        154.17	    13.601
  12.780        140.83	    13.000
  12.800        115.83	    11.790
  12.820        106.67	    11.314
  12.840         83.33	    10.000
  12.860         98.33	    10.863
  12.880         80.00	     9.798
  12.900         80.00	     9.798
  12.920         95.83	    10.724
  12.940         70.00	     9.165
  12.960         77.50	     9.644
  12.980         74.17	     9.434
  13.000         71.67	     9.274
  13.020         62.50	     8.660
  13.040         74.17	     9.434
  13.060         80.83	     9.849
  13.080         66.67	     8.944
  13.100         73.33	     9.381
  13.120         69.17	     9.110
  13.140         73.33	     9.381
  13.160         66.67	     8.944
  13.180         67.50	     9.000
  13.200         68.33	     9.055
  13.220         63.33	     8.718
  13.240         55.00	     8.124
  13.260         54.17	     8.062
  13.280         65.83	     8.888
  13.300         69.17	     9.110
  13.320         50.00	     7.746
  13.340         73.33	     9.381
  13.360         48.33	     7.616
  13.380         58.33	     8.367
  13.400         50.83	     7.810
  13.420         57.50	     8.307
  13.440         55.83	     8.185
  13.460         60.83	     8.544
  13.480         60.83	     8.544
  13.500         54.17	     8.062
  13.520         65.00	     8.832
  13.540         54.17	     8.062
  13.560         66.67	     8.944
  13.580         60.00	     8.485
  13.600         51.67	     7.874
  13.620         50.00	     7.746
  13.640         56.67	     8.246
  13.660         55.83	     8.185
  13.680         59.17	     8.426
  13.700         51.67	     7.874
  13.720         52.50	     7.937
  13.740         60.83	     8.544
  13.760         57.50	     8.307
  13.780         64.17	     8.775
  13.800         64.17	     8.775
  13.820         59.17	     8.426
  13.840         53.33	     8.000
  13.860         60.83	     8.544
  13.880         64.17	     8.775
  13.900         65.83	     8.888
  13.920         50.83	     7.810
  13.940         61.67	     8.602
  13.960         68.33	     9.055
  13.980         85.00	    10.100
  14.000         92.50	    10.536
  14.020         91.67	    10.488
  14.040         91.67	    10.488
  14.060         85.00	    10.100
  14.080         75.83	     9.539
  14.100         65.00	     8.832
  14.120         61.67	     8.602
  14.140         64.17	     8.775
  14.160         67.50	     9.000
  14.180         71.67	     9.274
  14.200         60.83	     8.544
  14.220         58.33	     8.367
  14.240         62.50	     8.660
  14.260         61.67	     8.602
  14.280         42.50	     7.141
  14.300         53.33	     8.000
  14.320         58.33	     8.367
  14.340         47.50	     7.550
  14.360         43.33	     7.211
  14.380         56.67	     8.246
  14.400         45.83	     7.416
  14.420         57.50	     8.307
  14.440         59.17	     8.426
  14.460         55.00	     8.124
  14.480         54.17	     8.062
  14.500         58.33	     8.367
  14.520         39.17	     6.856
  14.540         45.83	     7.416
  14.560         51.67	     7.874
  14.580         45.00	     7.348
  14.600         52.50	     7.937
  14.620         42.50	     7.141
  14.640         57.50	     8.307
  14.660         50.00	     7.746
  14.680         45.00	     7.348
  14.700         45.00	     7.348
  14.720         43.33	     7.211
  14.740         50.00	     7.746
  14.760         42.50	     7.141
  14.780         58.33	     8.367
  14.800         36.67	     6.633
  14.820         36.67	     6.633
  14.840         55.00	     8.124
  14.860         54.17	     8.062
  14.880         57.50	     8.307
  14.900         55.83	     8.185
  14.920         48.33	     7.616
  14.940         32.50	     6.245
  14.960         40.83	     7.000
  14.980         38.33	     6.782
  15.000         56.67	     8.246
  15.020         49.17	     7.681
  15.040         52.50	     7.937
  15.060         42.50	     7.141
  15.080         68.33	     9.055
  15.100         45.83	     7.416
  15.120         47.50	     7.550
  15.140         57.50	     8.307
  15.160         61.67	     8.602
  15.180         55.83	     8.185
  15.200         46.67	     7.483
  15.220         58.33	     8.367
  15.240         47.50	     7.550
  15.260         54.17	     8.062
  15.280         55.00	     8.124
  15.300         64.17	     8.775
  15.320         48.33	     7.616
  15.340         55.00	     8.124
  15.360         45.00	     7.348
  15.380         44.17	     7.280
  15.400         63.33	     8.718
  15.420         47.50	     7.550
  15.440         55.00	     8.124
  15.460         52.50	     7.937
  15.480         42.50	     7.141
  15.500         42.50	     7.141
  15.520         51.67	     7.874
  15.540         54.17	     8.062
  15.560         47.50	     7.550
  15.580         41.67	     7.071
  15.600         50.00	     7.746
  15.620         43.33	     7.211
  15.640         42.50	     7.141
  15.660         48.33	     7.616
  15.680         54.17	     8.062
  15.700         38.33	     6.782
  15.720         42.50	     7.141
  15.740         49.17	     7.681
  15.760         55.00	     8.124
  15.780         53.33	     8.000
  15.800         47.50	     7.550
  15.820         59.17	     8.426
  15.840         43.33	     7.211
  15.860         36.67	     6.633
  15.880         45.00	     7.348
  15.900         50.83	     7.810
  15.920         45.00	     7.348
  15.940         55.83	     8.185
  15.960         42.50	     7.141
  15.980         39.17	     6.856
  16.000         39.17	     6.856
  16.020         47.50	     7.550
  16.040         40.83	     7.000
  16.060         52.50	     7.937
  16.080         44.17	     7.280
  16.100         55.00	     8.124
  16.120         55.00	     8.124
  16.140         35.00	     6.481
  16.160         40.00	     6.928
  16.180         43.33	     7.211
  16.200         61.67	     8.602
  16.220         36.67	     6.633
  16.240         54.17	     8.062
  16.260         42.50	     7.141
  16.280         51.67	     7.874
  16.300         43.33	     7.211
  16.320         45.83	     7.416
  16.340         49.17	     7.681
  16.360         48.33	     7.616
  16.380         46.67	     7.483
  16.400         48.33	     7.616
  16.420         59.17	     8.426
  16.440         45.83	     7.416
  16.460         48.33	     7.616
  16.480         54.17	     8.062
  16.500         50.00	     7.746
  16.520         50.83	     7.810
  16.540         49.17	     7.681
  16.560         43.33	     7.211
  16.580         53.33	     8.000
  16.600         36.67	     6.633
  16.620         40.83	     7.000
  16.640         45.83	     7.416
  16.660         30.00	     6.000
  16.680         50.83	     7.810
  16.700         35.83	     6.557
  16.720         32.50	     6.245
  16.740         36.67	     6.633
  16.760         39.17	     6.856
  16.780         48.33	     7.616
  16.800         35.00	     6.481
  16.820         50.83	     7.810
  16.840         43.33	     7.211
  16.860         45.83	     7.416
  16.880         47.50	     7.550
  16.900         40.83	     7.000
  16.920         41.67	     7.071
  16.940         45.00	     7.348
  16.960         40.00	     6.928
  16.980         40.83	     7.000
  17.000         52.50	     7.937
  17.020         43.33	     7.211
  17.040         40.00	     6.928
  17.060         50.00	     7.746
  17.080         29.17	     5.916
  17.100         52.50	     7.937
  17.120         43.33	     7.211
  17.140         40.00	     6.928
  17.160         49.17	     7.681
  17.180         48.33	     7.616
  17.200         37.50	     6.708
  17.220         42.50	     7.141
  17.240         40.83	     7.000
  17.260         48.33	     7.616
  17.280         35.83	     6.557
  17.300         41.67	     7.071
  17.320         38.33	     6.782
  17.340         56.67	     8.246
  17.360         34.17	     6.403
  17.380         35.00	     6.481
  17.400         61.67	     8.602
  17.420         45.83	     7.416
  17.440         40.83	     7.000
  17.460         38.33	     6.782
  17.480         55.00	     8.124
  17.500         38.33	     6.782
  17.520         52.50	     7.937
  17.540         47.50	     7.550
  17.560         63.33	     8.718
  17.580         46.67	     7.483
  17.600         54.17	     8.062
  17.620         47.50	     7.550
  17.640         47.50	     7.550
  17.660         57.50	     8.307
  17.680         60.00	     8.485
  17.700         55.83	     8.185
  17.720         58.33	     8.367
  17.740         59.17	     8.426
  17.760         50.00	     7.746
  17.780         60.00	     8.485
  17.800         74.17	     9.434
  17.820         76.67	     9.592
  17.840         81.67	     9.899
  17.860        105.83	    11.269
  17.880        140.83	    13.000
  17.900        160.83	    13.892
  17.920        196.67	    15.362
  17.940        232.50	    16.703
  17.960        303.33	    19.079
  17.980        280.83	    18.358
  18.000        275.00	    18.166
  18.020        230.00	    16.613
  18.040        179.17	    14.663
  18.060        135.00	    12.728
  18.080        104.17	    11.180
  18.100         78.33	     9.695
  18.120         88.33	    10.296
  18.140         75.00	     9.487
  18.160         55.83	     8.185
  18.180         62.50	     8.660
  18.200         52.50	     7.937
  18.220         60.00	     8.485
  18.240         42.50	     7.141
  18.260         55.83	     8.185
  18.280         57.50	     8.307
  18.300         55.00	     8.124
  18.320         71.67	     9.274
  18.340         59.17	     8.426
  18.360         50.83	     7.810
  18.380         50.83	     7.810
  18.400         50.00	     7.746
  18.420         43.33	     7.211
  18.440         54.17	     8.062
  18.460         66.67	     8.944
  18.480         60.83	     8.544
  18.500         54.17	     8.062
  18.520         57.50	     8.307
  18.540         80.00	     9.798
  18.560         59.17	     8.426
  18.580         64.17	     8.775
  18.600         60.83	     8.544
  18.620         64.17	     8.775
  18.640         65.83	     8.888
  18.660         62.50	     8.660
  18.680         80.83	     9.849
  18.700         87.50	    10.247
  18.720         85.00	    10.100
  18.740         84.17	    10.050
  18.760        106.67	    11.314
  18.780        101.67	    11.045
  18.800        106.67	    11.314
  18.820        110.83	    11.533
  18.840        110.83	    11.533
  18.860        124.17	    12.207
  18.880        138.33	    12.884
  18.900        160.83	    13.892
  18.920        196.67	    15.362
  18.940        215.00	    16.062
  18.960        191.67	    15.166
  18.980        219.17	    16.217
  19.000        164.17	    14.036
  19.020        143.33	    13.115
  19.040         98.33	    10.863
  19.060         89.17	    10.344
  19.080         78.33	     9.695
  19.100         75.00	     9.487
  19.120         52.50	     7.937
  19.140         70.83	     9.220
  19.160         64.17	     8.775
  19.180         63.33	     8.718
  19.200         64.17	     8.775
  19.220         55.83	     8.185
  19.240         59.17	     8.426
  19.260         48.33	     7.616
  19.280         67.50	     9.000
  19.300         65.00	     8.832
  19.320         78.33	     9.695
  19.340         76.67	     9.592
  19.360         90.00	    10.392
  19.380         75.83	     9.539
  19.400         67.50	     9.000
  19.420         79.17	     9.747
  19.440         64.17	     8.775
  19.460         87.50	    10.247
  19.480         64.17	     8.775
  19.500         65.83	     8.888
  19.520         58.33	     8.367
  19.540         75.83	     9.539
  19.560         87.50	    10.247
  19.580         70.00	     9.165
  19.600         76.67	     9.592
  19.620         70.00	     9.165
  19.640         62.50	     8.660
  19.660         55.00	     8.124
  19.680         75.83	     9.539
  19.700         71.67	     9.274
  19.720         72.50	     9.327
  19.740         73.33	     9.381
  19.760         88.33	    10.296
  19.780         82.50	     9.950
  19.800         92.50	    10.536
  19.820        102.50	    11.091
  19.840        101.67	    11.045
  19.860         94.17	    10.630
  19.880        106.67	    11.314
  19.900        113.33	    11.662
  19.920        120.00	    12.000
  19.940        141.67	    13.038
  19.960        150.00	    13.416
  19.980        163.33	    14.000
  20.000        152.50	    13.528
  20.020        140.00	    12.961
  20.040        158.33	    13.784
  20.060        141.67	    13.038
  20.080        130.83	    12.530
  20.100        110.00	    11.489
  20.120         80.83	     9.849
  20.140         85.83	    10.149
  20.160         69.17	     9.110
  20.180         82.50	     9.950
  20.200         75.83	     9.539
  20.220         79.17	     9.747
  20.240         77.50	     9.644
  20.260         60.83	     8.544
  20.280         69.17	     9.110
  20.300         60.00	     8.485
  20.320         76.67	     9.592
  20.340         75.83	     9.539
  20.360         56.67	     8.246
  20.380         72.50	     9.327
  20.400         60.00	     8.485
  20.420         57.50	     8.307
  20.440         58.33	     8.367
  20.460         53.33	     8.000
  20.480         54.17	     8.062
  20.500         42.50	     7.141
  20.520         45.00	     7.348
  20.540         46.67	     7.483
  20.560         56.67	     8.246
  20.580         46.67	     7.483
  20.600         60.83	     8.544
  20.620         47.50	     7.550
  20.640         48.33	     7.616
  20.660         57.50	     8.307
  20.680         72.50	     9.327
  20.700         55.00	     8.124
  20.720         61.67	     8.602
  20.740         77.50	     9.644
  20.760         76.67	     9.592
  20.780         61.67	     8.602
  20.800         73.33	     9.381
  20.820         80.83	     9.849
  20.840         85.00	    10.100
  20.860         62.50	     8.660
  20.880         70.83	     9.220
  20.900         73.33	     9.381
  20.920         91.67	    10.488
  20.940        117.50	    11.874
  20.960        170.00	    14.283
  20.980        218.33	    16.186
  21.000        272.50	    18.083
  21.020        306.67	    19.183
  21.040        257.50	    17.578
  21.060        206.67	    15.748
  21.080        150.83	    13.454
  21.100        139.17	    12.923
  21.120        113.33	    11.662
  21.140        100.00	    10.954
  21.160         97.50	    10.817
  21.180        109.17	    11.446
  21.200         90.00	    10.392
  21.220         85.83	    10.149
  21.240         84.17	    10.050
  21.260        100.83	    11.000
  21.280         65.00	     8.832
  21.300         47.50	     7.550
  21.320         64.17	     8.775
  21.340         66.67	     8.944
  21.360         57.50	     8.307
  21.380         55.00	     8.124
  21.400         48.33	     7.616
  21.420         50.00	     7.746
  21.440         44.17	     7.280
  21.460         49.17	     7.681
  21.480         49.17	     7.681
  21.500         60.00	     8.485
  21.520         49.17	     7.681
  21.540         52.50	     7.937
  21.560         58.33	     8.367
  21.580         49.17	     7.681
  21.600         58.33	     8.367
  21.620         60.00	     8.485
  21.640         60.83	     8.544
  21.660         67.50	     9.000
  21.680         65.83	     8.888
  21.700         78.33	     9.695
  21.720         68.33	     9.055
  21.740         75.00	     9.487
  21.760         77.50	     9.644
  21.780         60.83	     8.544
  21.800         68.33	     9.055
  21.820         69.17	     9.110
  21.840         58.33	     8.367
  21.860         70.00	     9.165
  21.880         61.67	     8.602
  21.900         50.83	     7.810
  21.920         65.00	     8.832
  21.940         67.50	     9.000
  21.960         52.50	     7.937
  21.980         54.17	     8.062
  22.000         52.50	     7.937
  22.020         75.00	     9.487
  22.040         59.17	     8.426
  22.060         57.50	     8.307
  22.080         73.33	     9.381
  22.100         94.17	    10.630
  22.120        131.67	    12.570
  22.140        156.67	    13.711
  22.160        198.33	    15.427
  22.180        247.50	    17.234
  22.200        261.67	    17.720
  22.220        251.67	    17.378
  22.240        160.83	    13.892
  22.260        163.33	    14.000
  22.280        112.50	    11.619
  22.300         80.00	     9.798
  22.320         67.50	     9.000
  22.340         50.83	     7.810
  22.360         66.67	     8.944
  22.380         64.17	     8.775
  22.400         65.83	     8.888
  22.420         57.50	     8.307
  22.440         71.67	     9.274
  22.460         57.50	     8.307
  22.480         62.50	     8.660
  22.500         61.67	     8.602
  22.520         76.67	     9.592
  22.540         81.67	     9.899
  22.560         64.17	     8.775
  22.580         59.17	     8.426
  22.600         64.17	     8.775
  22.620         70.00	     9.165
  22.640         71.67	     9.274
  22.660         65.00	     8.832
  22.680         69.17	     9.110
  22.700         66.67	     8.944
  22.720         61.67	     8.602
  22.740         55.83	     8.185
  22.760         50.00	     7.746
  22.780         70.83	     9.220
  22.800         63.33	     8.718
  22.820         66.67	     8.944
  22.840         31.67	     6.164
  22.860         55.00	     8.124
  22.880         72.50	     9.327
  22.900         81.67	     9.899
  22.920         66.67	     8.944
  22.940         72.50	     9.327
  22.960         81.67	     9.899
  22.980        103.33	    11.136
  23.000        123.33	    12.166
  23.020        115.00	    11.747
  23.040        120.83	    12.042
  23.060        134.17	    12.689
  23.080        136.67	    12.806
  23.100        139.17	    12.923
  23.120        113.33	    11.662
  23.140        142.50	    13.077
  23.160        120.00	    12.000
  23.180        117.50	    11.874
  23.200        102.50	    11.091
  23.220        105.00	    11.225
  23.240         82.50	     9.950
  23.260         92.50	    10.536
  23.280         77.50	     9.644
  23.300         85.00	    10.100
  23.320         73.33	     9.381
  23.340         61.67	     8.602
  23.360         56.67	     8.246
  23.380         54.17	     8.062
  23.400         62.50	     8.660
  23.420         61.67	     8.602
  23.440         62.50	     8.660
  23.460         57.50	     8.307
  23.480         65.83	     8.888
  23.500         58.33	     8.367
  23.520         52.50	     7.937
  23.540         69.17	     9.110
  23.560         71.67	     9.274
  23.580         77.50	     9.644
  23.600         79.17	     9.747
  23.620         95.83	    10.724
  23.640        110.00	    11.489
  23.660        174.17	    14.457
  23.680        192.50	    15.199
  23.700        203.33	    15.620
  23.720        180.83	    14.731
  23.740        180.83	    14.731
  23.760        185.83	    14.933
  23.780        152.50	    13.528
  23.800        111.67	    11.576
  23.820        100.83	    11.000
  23.840        103.33	    11.136
  23.860        106.67	    11.314
  23.880        120.00	    12.000
  23.900        113.33	    11.662
  23.920        110.83	    11.533
  23.940        125.00	    12.247
  23.960        138.33	    12.884
  23.980        129.17	    12.450
  24.000        122.50	    12.124
  24.020        130.00	    12.490
  24.040         99.17	    10.909
  24.060        111.67	    11.576
  24.080         89.17	    10.344
  24.100        110.83	    11.533
  24.120         96.67	    10.770
  24.140         78.33	     9.695
  24.160        103.33	    11.136
  24.180         95.00	    10.677
  24.200         93.33	    10.583
  24.220         85.83	    10.149
  24.240         85.83	    10.149
  24.260        107.50	    11.358
  24.280        121.67	    12.083
  24.300        146.67	    13.266
  24.320        127.50	    12.369
  24.340        157.50	    13.748
  24.360        138.33	    12.884
  24.380        154.17	    13.601
  24.400        169.17	    14.248
  24.420        169.17	    14.248
  24.440        171.67	    14.353
  24.460        163.33	    14.000
  24.480        184.17	    14.866
  24.500        161.67	    13.928
  24.520        148.33	    13.342
  24.540        155.83	    13.675
  24.560        114.17	    11.705
  24.580         91.67	    10.488
  24.600        104.17	    11.180
  24.620        135.00	    12.728
  24.640        111.67	    11.576
  24.660        128.33	    12.410
  24.680        165.00	    14.071
  24.700        192.50	    15.199
  24.720        233.33	    16.733
  24.740        292.50	    18.735
  24.760        323.33	    19.698
  24.780        341.67	    20.248
  24.800        375.83	    21.237
  24.820        358.33	    20.736
  24.840        319.17	    19.570
  24.860        307.50	    19.209
  24.880        317.50	    19.519
  24.900        269.17	    17.972
  24.920        245.00	    17.146
  24.940        218.33	    16.186
  24.960        178.33	    14.629
  24.980        165.83	    14.107
  25.000        154.17	    13.601
  25.020        146.67	    13.266
  25.040        146.67	    13.266
  25.060        155.83	    13.675
  25.080        132.50	    12.610
  25.100        150.83	    13.454
  25.120        158.33	    13.784
  25.140        159.17	    13.820
  25.160        170.00	    14.283
  25.180        176.67	    14.560
  25.200        187.50	    15.000
  25.220        243.33	    17.088
  25.240        276.67	    18.221
  25.260        305.83	    19.157
  25.280        350.83	    20.518
  25.300        371.67	    21.119
  25.320        394.17	    21.749
  25.340        410.83	    22.204
  25.360        335.00	    20.050
  25.380        282.50	    18.412
  25.400        239.17	    16.941
  25.420        202.50	    15.588
  25.440        152.50	    13.528
  25.460        142.50	    13.077
  25.480        122.50	    12.124
  25.500        158.33	    13.784
  25.520        174.17	    14.457
  25.540        190.00	    15.100
  25.560        172.50	    14.387
  25.580        179.17	    14.663
  25.600        209.17	    15.843
  25.620        225.83	    16.462
  25.640        244.17	    17.117
  25.660        240.00	    16.971
  25.680        229.17	    16.583
  25.700        236.67	    16.852
  25.720        234.17	    16.763
  25.740        203.33	    15.620
  25.760        164.17	    14.036
  25.780        187.50	    15.000
  25.800        173.33	    14.422
  25.820        154.17	    13.601
  25.840        147.50	    13.304
  25.860        135.00	    12.728
  25.880        121.67	    12.083
  25.900        109.17	    11.446
  25.920         93.33	    10.583
  25.940         97.50	    10.817
  25.960        100.00	    10.954
  25.980         95.83	    10.724
  26.000         90.00	    10.392
  26.020         92.50	    10.536
  26.040        100.83	    11.000
  26.060         80.83	     9.849
  26.080         85.83	    10.149
  26.100         95.00	    10.677
  26.120         85.83	    10.149
  26.140        103.33	    11.136
  26.160        112.50	    11.619
  26.180         92.50	    10.536
  26.200         89.17	    10.344
  26.220        109.17	    11.446
  26.240         86.67	    10.198
  26.260         98.33	    10.863
  26.280        103.33	    11.136
  26.300        101.67	    11.045
  26.320        110.83	    11.533
  26.340        110.00	    11.489
  26.360        128.33	    12.410
  26.380        115.00	    11.747
  26.400        137.50	    12.845
  26.420        147.50	    13.304
  26.440        159.17	    13.820
  26.460        178.33	    14.629
  26.480        173.33	    14.422
  26.500        198.33	    15.427
  26.520        210.00	    15.875
  26.540        214.17	    16.031
  26.560        276.67	    18.221
  26.580        263.33	    17.776
  26.600        290.00	    18.655
  26.620        295.83	    18.841
  26.640        309.17	    19.261
  26.660        310.83	    19.313
  26.680        357.50	    20.712
  26.700        385.83	    21.517
  26.720        574.17	    26.249
  26.740        757.50	    30.150
  26.760       1250.00	    38.730
  26.780       1700.00	    45.166
  26.800       1661.67	    44.654
  26.820       1437.50	    41.533
  26.840       1205.83	    38.039
  26.860       1084.17	    36.069
  26.880        856.67	    32.062
  26.900        673.33	    28.425
  26.920        606.67	    26.981
  26.940        581.67	    26.420
  26.960        688.33	    28.740
  26.980        761.67	    30.232
  27.000        747.50	    29.950
  27.020        785.00	    30.692
  27.040        736.67	    29.732
  27.060        645.83	    27.839
  27.080        538.33	    25.417
  27.100        450.83	    23.259
  27.120        371.67	    21.119
  27.140        260.83	    17.692
  27.160        230.00	    16.613
  27.180        218.33	    16.186
  27.200        205.83	    15.716
  27.220        180.00	    14.697
  27.240        150.00	    13.416
  27.260        135.83	    12.767
  27.280        145.83	    13.229
  27.300        159.17	    13.820
  27.320        107.50	    11.358
  27.340        125.83	    12.288
  27.360        108.33	    11.402
  27.380        119.17	    11.958
  27.400        113.33	    11.662
  27.420        107.50	    11.358
  27.440         99.17	    10.909
  27.460         99.17	    10.909
  27.480        103.33	    11.136
  27.500         98.33	    10.863
  27.520         90.83	    10.440
  27.540         84.17	    10.050
  27.560        108.33	    11.402
  27.580        120.83	    12.042
  27.600        130.00	    12.490
  27.620        181.67	    14.765
  27.640        172.50	    14.387
  27.660        208.33	    15.811
  27.680        190.83	    15.133
  27.700        179.17	    14.663
  27.720        157.50	    13.748
  27.740        136.67	    12.806
  27.760        154.17	    13.601
  27.780        126.67	    12.329
  27.800        133.33	    12.649
  27.820        146.67	    13.266
  27.840        206.67	    15.748
  27.860        255.83	    17.521
  27.880        297.50	    18.894
  27.900        310.00	    19.287
  27.920        326.67	    19.799
  27.940        394.17	    21.749
  27.960        348.33	    20.445
  27.980        396.67	    21.817
  28.000        435.00	    22.847
  28.020        514.17	    24.839
  28.040        603.33	    26.907
  28.060        564.17	    26.019
  28.080        589.17	    26.589
  28.100        532.50	    25.278
  28.120        531.67	    25.259
  28.140        475.83	    23.896
  28.160        405.83	    22.068
  28.180        295.00	    18.815
  28.200        251.67	    17.378
  28.220        218.33	    16.186
  28.240        195.83	    15.330
  28.260        202.50	    15.588
  28.280        215.00	    16.062
  28.300        184.17	    14.866
  28.320        191.67	    15.166
  28.340        186.67	    14.967
  28.360        179.17	    14.663
  28.380        168.33	    14.213
  28.400        148.33	    13.342
  28.420        159.17	    13.820
  28.440        157.50	    13.748
  28.460        149.17	    13.379
  28.480        166.67	    14.142
  28.500        150.83	    13.454
  28.520        123.33	    12.166
  28.540        120.00	    12.000
  28.560        116.67	    11.832
  28.580        106.67	    11.314
  28.600         99.17	    10.909
  28.620         93.33	    10.583
  28.640        120.83	    12.042
  28.660        145.00	    13.191
  28.680        147.50	    13.304
  28.700        160.00	    13.856
  28.720        139.17	    12.923
  28.740        138.33	    12.884
  28.760        130.83	    12.530
  28.780        124.17	    12.207
  28.800        123.33	    12.166
  28.820        125.83	    12.288
  28.840        120.83	    12.042
  28.860        105.00	    11.225
  28.880        100.00	    10.954
  28.900        116.67	    11.832
  28.920        114.17	    11.705
  28.940        107.50	    11.358
  28.960        102.50	    11.091
  28.980         90.00	    10.392
  29.000        101.67	    11.045
  29.020         75.83	     9.539
  29.040         65.00	     8.832
  29.060         73.33	     9.381
  29.080         69.17	     9.110
  29.100         76.67	     9.592
  29.120         60.83	     8.544
  29.140         67.50	     9.000
  29.160         62.50	     8.660
  29.180         69.17	     9.110
  29.200         54.17	     8.062
  29.220         54.17	     8.062
  29.240         55.00	     8.124
  29.260         54.17	     8.062
  29.280         55.00	     8.124
  29.300         65.83	     8.888
  29.320         65.00	     8.832
  29.340         47.50	     7.550
  29.360         50.83	     7.810
  29.380         50.00	     7.746
  29.400         52.50	     7.937
  29.420         55.83	     8.185
  29.440         58.33	     8.367
  29.460         61.67	     8.602
  29.480         57.50	     8.307
  29.500         52.50	     7.937
  29.520         60.83	     8.544
  29.540         48.33	     7.616
  29.560         36.67	     6.633
  29.580         53.33	     8.000
  29.600         64.17	     8.775
  29.620         71.67	     9.274
  29.640         64.17	     8.775
  29.660         65.83	     8.888
  29.680         63.33	     8.718
  29.700         50.00	     7.746
  29.720         65.83	     8.888
  29.740         62.50	     8.660
  29.760         69.17	     9.110
  29.780         64.17	     8.775
  29.800         71.67	     9.274
  29.820         75.00	     9.487
  29.840         82.50	     9.950
  29.860         98.33	    10.863
  29.880         85.83	    10.149
  29.900        116.67	    11.832
  29.920        117.50	    11.874
  29.940        129.17	    12.450
  29.960        155.00	    13.638
  29.980        171.67	    14.353
  30.000        188.33	    15.033
  30.020        219.17	    16.217
  30.040        265.00	    17.833
  30.060        216.67	    16.125
  30.080        173.33	    14.422
  30.100        190.83	    15.133
  30.120        176.67	    14.560
  30.140        148.33	    13.342
  30.160        142.50	    13.077
  30.180        146.67	    13.266
  30.200        125.00	    12.247
  30.220        100.83	    11.000
  30.240        129.17	    12.450
  30.260        114.17	    11.705
  30.280         87.50	    10.247
  30.300         98.33	    10.863
  30.320        110.00	    11.489
  30.340         99.17	    10.909
  30.360         93.33	    10.583
  30.380        106.67	    11.314
  30.400        118.33	    11.916
  30.420         79.17	     9.747
  30.440         86.67	    10.198
  30.460         96.67	    10.770
  30.480        100.83	    11.000
  30.500        120.83	    12.042
  30.520        120.83	    12.042
  30.540        112.50	    11.619
  30.560        125.83	    12.288
  30.580        143.33	    13.115
  30.600        158.33	    13.784
  30.620        158.33	    13.784
  30.640        145.00	    13.191
  30.660        130.83	    12.530
  30.680         97.50	    10.817
  30.700        115.83	    11.790
  30.720         96.67	    10.770
  30.740        106.67	    11.314
  30.760         83.33	    10.000
  30.780         87.50	    10.247
  30.800         73.33	     9.381
  30.820         64.17	     8.775
  30.840         66.67	     8.944
  30.860         75.00	     9.487
  30.880         75.00	     9.487
  30.900         68.33	     9.055
  30.920         88.33	    10.296
  30.940         80.83	     9.849
  30.960         73.33	     9.381
  30.980         81.67	     9.899
  31.000        100.00	    10.954
  31.020         95.83	    10.724
  31.040         72.50	     9.327
  31.060         93.33	    10.583
  31.080         80.00	     9.798
  31.100         85.83	    10.149
  31.120         76.67	     9.592
  31.140         86.67	    10.198
  31.160         94.17	    10.630
  31.180        101.67	    11.045
  31.200        105.83	    11.269
  31.220        112.50	    11.619
  31.240        128.33	    12.410
  31.260        112.50	    11.619
  31.280        127.50	    12.369
  31.300        120.83	    12.042
  31.320        137.50	    12.845
  31.340        161.67	    13.928
  31.360        173.33	    14.422
  31.380        195.83	    15.330
  31.400        204.17	    15.652
  31.420        215.00	    16.062
  31.440        186.67	    14.967
  31.460        168.33	    14.213
  31.480        189.17	    15.067
  31.500        140.83	    13.000
  31.520        148.33	    13.342
  31.540        115.83	    11.790
  31.560        125.00	    12.247
  31.580         96.67	    10.770
  31.600        105.83	    11.269
  31.620         97.50	    10.817
  31.640        100.83	    11.000
  31.660        104.17	    11.180
  31.680        119.17	    11.958
  31.700        110.83	    11.533
  31.720        120.00	    12.000
  31.740         86.67	    10.198
  31.760        109.17	    11.446
  31.780        112.50	    11.619
  31.800        101.67	    11.045
  31.820         94.17	    10.630
  31.840         81.67	     9.899
  31.860         71.67	     9.274
  31.880         66.67	     8.944
  31.900         68.33	     9.055
  31.920         65.83	     8.888
  31.940         63.33	     8.718
  31.960         62.50	     8.660
  31.980         65.83	     8.888
  32.000         72.50	     9.327
  32.020         78.33	     9.695
  32.040         80.83	     9.849
  32.060         78.33	     9.695
  32.080         80.83	     9.849
  32.100         90.83	    10.440
  32.120         76.67	     9.592
  32.140        103.33	    11.136
  32.160         95.83	    10.724
  32.180        117.50	    11.874
  32.200        146.67	    13.266
  32.220        137.50	    12.845
  32.240        132.50	    12.610
  32.260        113.33	    11.662
  32.280        130.83	    12.530
  32.300        112.50	    11.619
  32.320        109.17	    11.446
  32.340         90.00	    10.392
  32.360         74.17	     9.434
  32.380         70.00	     9.165
  32.400         58.33	     8.367
  32.420         58.33	     8.367
  32.440         58.33	     8.367
  32.460         70.00	     9.165
  32.480         65.83	     8.888
  32.500         58.33	     8.367
  32.520         60.83	     8.544
  32.540         39.17	     6.856
  32.560         41.67	     7.071
  32.580         56.67	     8.246
  32.600         40.83	     7.000
  32.620         41.67	     7.071
  32.640         44.17	     7.280
  32.660         41.67	     7.071
  32.680         40.00	     6.928
  32.700         57.50	     8.307
  32.720         45.83	     7.416
  32.740         38.33	     6.782
  32.760         40.00	     6.928
  32.780         36.67	     6.633
  32.800         47.50	     7.550
  32.820         50.00	     7.746
  32.840         47.50	     7.550
  32.860         37.50	     6.708
  32.880         40.00	     6.928
  32.900         54.17	     8.062
  32.920         47.50	     7.550
  32.940         51.67	     7.874
  32.960         48.33	     7.616
  32.980         43.33	     7.211
  33.000         55.00	     8.124
  33.020         46.67	     7.483
  33.040         38.33	     6.782
  33.060         45.00	     7.348
  33.080         60.83	     8.544
  33.100         40.83	     7.000
  33.120         58.33	     8.367
  33.140         69.17	     9.110
  33.160         53.33	     8.000
  33.180         70.83	     9.220
  33.200         98.33	    10.863
  33.220         92.50	    10.536
  33.240         85.00	    10.100
  33.260         88.33	    10.296
  33.280         64.17	     8.775
  33.300         64.17	     8.775
  33.320         69.17	     9.110
  33.340         60.83	     8.544
  33.360         69.17	     9.110
  33.380         43.33	     7.211
  33.400         46.67	     7.483
  33.420         40.83	     7.000
  33.440         46.67	     7.483
  33.460         47.50	     7.550
  33.480         46.67	     7.483
  33.500         53.33	     8.000
  33.520         48.33	     7.616
  33.540         42.50	     7.141
  33.560         47.50	     7.550
  33.580         50.83	     7.810
  33.600         64.17	     8.775
  33.620         55.00	     8.124
  33.640         47.50	     7.550
  33.660         52.50	     7.937
  33.680         56.67	     8.246
  33.700         50.00	     7.746
  33.720         61.67	     8.602
  33.740         49.17	     7.681
  33.760         56.67	     8.246
  33.780         60.00	     8.485
  33.800         54.17	     8.062
  33.820         55.83	     8.185
  33.840         53.33	     8.000
  33.860         59.17	     8.426
  33.880         50.83	     7.810
  33.900         54.17	     8.062
  33.920         60.83	     8.544
  33.940         59.17	     8.426
  33.960         59.17	     8.426
  33.980         50.83	     7.810
  34.000         74.17	     9.434
  34.020         84.17	    10.050
  34.040         88.33	    10.296
  34.060         88.33	    10.296
  34.080         83.33	    10.000
  34.100         86.67	    10.198
  34.120         91.67	    10.488
  34.140         95.00	    10.677
  34.160         94.17	    10.630
  34.180        115.00	    11.747
  34.200        101.67	    11.045
  34.220        101.67	    11.045
  34.240        100.00	    10.954
  34.260         88.33	    10.296
  34.280         90.00	    10.392
  34.300         72.50	     9.327
  34.320         79.17	     9.747
  34.340         86.67	    10.198
  34.360         78.33	     9.695
  34.380         81.67	     9.899
  34.400         69.17	     9.110
  34.420         66.67	     8.944
  34.440         83.33	    10.000
  34.460         81.67	     9.899
  34.480         60.00	     8.485
  34.500         67.50	     9.000
  34.520         81.67	     9.899
  34.540        104.17	    11.180
  34.560        100.00	    10.954
  34.580         98.33	    10.863
  34.600        107.50	    11.358
  34.620        116.67	    11.832
  34.640        122.50	    12.124
  34.660        127.50	    12.369
  34.680        149.17	    13.379
  34.700        154.17	    13.601
  34.720        140.83	    13.000
  34.740        137.50	    12.845
  34.760        137.50	    12.845
  34.780         96.67	    10.770
  34.800        114.17	    11.705
  34.820        118.33	    11.916
  34.840         87.50	    10.247
  34.860        110.00	    11.489
  34.880         81.67	     9.899
  34.900        101.67	    11.045
  34.920        116.67	    11.832
  34.940        124.17	    12.207
  34.960         96.67	    10.770
  34.980        149.17	    13.379
  35.000        163.33	    14.000
  35.020        165.00	    14.071
  35.040        192.50	    15.199
  35.060        195.00	    15.297
  35.080        211.67	    15.937
  35.100        205.00	    15.684
  35.120        235.83	    16.823
  35.140        200.00	    15.492
  35.160        199.17	    15.460
  35.180        182.50	    14.799
  35.200        180.83	    14.731
  35.220        171.67	    14.353
  35.240        145.83	    13.229
  35.260        147.50	    13.304
  35.280        149.17	    13.379
  35.300        126.67	    12.329
  35.320        117.50	    11.874
  35.340        114.17	    11.705
  35.360        101.67	    11.045
  35.380         90.83	    10.440
  35.400         98.33	    10.863
  35.420        105.00	    11.225
  35.440        102.50	    11.091
  35.460         99.17	    10.909
  35.480        100.00	    10.954
  35.500        117.50	    11.874
  35.520        120.83	    12.042
  35.540        126.67	    12.329
  35.560        132.50	    12.610
  35.580        169.17	    14.248
  35.600        171.67	    14.353
  35.620        142.50	    13.077
  35.640        135.83	    12.767
  35.660        173.33	    14.422
  35.680        144.17	    13.153
  35.700        147.50	    13.304
  35.720        130.83	    12.530
  35.740        123.33	    12.166
  35.760        124.17	    12.207
  35.780        100.83	    11.000
  35.800        101.67	    11.045
  35.820         76.67	     9.592
  35.840         73.33	     9.381
  35.860         85.00	    10.100
  35.880         79.17	     9.747
  35.900         75.83	     9.539
  35.920         90.83	    10.440
  35.940         77.50	     9.644
  35.960         73.33	     9.381
  35.980         65.83	     8.888
  36.000         80.00	     9.798
  36.020         90.00	    10.392
  36.040         62.50	     8.660
  36.060         74.17	     9.434
  36.080         90.83	    10.440
  36.100         82.50	     9.950
  36.120         65.83	     8.888
  36.140         82.50	     9.950
  36.160        120.83	    12.042
  36.180         95.83	    10.724
  36.200         87.50	    10.247
  36.220        100.83	    11.000
  36.240        104.17	    11.180
  36.260        104.17	    11.180
  36.280         98.33	    10.863
  36.300         80.83	     9.849
  36.320         95.83	    10.724
  36.340         77.50	     9.644
  36.360         81.67	     9.899
  36.380         75.83	     9.539
  36.400         71.67	     9.274
  36.420         58.33	     8.367
  36.440         57.50	     8.307
  36.460         53.33	     8.000
  36.480         59.17	     8.426
  36.500         63.33	     8.718
  36.520         73.33	     9.381
  36.540         68.33	     9.055
  36.560         85.83	    10.149
  36.580         75.00	     9.487
  36.600         90.00	    10.392
  36.620         95.00	    10.677
  36.640        118.33	    11.916
  36.660        149.17	    13.379
  36.680        191.67	    15.166
  36.700        184.17	    14.866
  36.720        163.33	    14.000
  36.740        135.00	    12.728
  36.760        146.67	    13.266
  36.780        165.00	    14.071
  36.800        143.33	    13.115
  36.820        137.50	    12.845
  36.840        135.83	    12.767
  36.860        147.50	    13.304
  36.880        132.50	    12.610
  36.900        106.67	    11.314
  36.920        103.33	    11.136
  36.940        106.67	    11.314
  36.960        103.33	    11.136
  36.980         85.83	    10.149
  37.000         94.17	    10.630
  37.020         85.00	    10.100
  37.040         71.67	     9.274
  37.060         65.83	     8.888
  37.080         70.00	     9.165
  37.100         80.00	     9.798
  37.120        104.17	    11.180
  37.140         75.83	     9.539
  37.160         66.67	     8.944
  37.180         52.50	     7.937
  37.200         68.33	     9.055
  37.220         70.00	     9.165
  37.240         67.50	     9.000
  37.260         72.50	     9.327
  37.280         70.00	     9.165
  37.300         64.17	     8.775
  37.320         68.33	     9.055
  37.340         52.50	     7.937
  37.360         60.83	     8.544
  37.380         81.67	     9.899
  37.400         79.17	     9.747
  37.420         69.17	     9.110
  37.440         78.33	     9.695
  37.460         79.17	     9.747
  37.480         88.33	    10.296
  37.500         87.50	    10.247
  37.520         76.67	     9.592
  37.540         76.67	     9.592
  37.560         78.33	     9.695
  37.580         78.33	     9.695
  37.600         86.67	    10.198
  37.620         90.83	    10.440
  37.640        102.50	    11.091
  37.660         88.33	    10.296
  37.680         87.50	    10.247
  37.700        104.17	    11.180
  37.720        110.00	    11.489
  37.740        107.50	    11.358
  37.760        105.00	    11.225
  37.780        130.00	    12.490
  37.800        115.00	    11.747
  37.820        136.67	    12.806
  37.840        115.00	    11.747
  37.860        123.33	    12.166
  37.880        112.50	    11.619
  37.900        105.83	    11.269
  37.920         87.50	    10.247
  37.940        100.00	    10.954
  37.960         90.83	    10.440
  37.980         70.83	     9.220
  38.000         78.33	     9.695
  38.020         49.17	     7.681
  38.040         50.83	     7.810
  38.060         65.00	     8.832
  38.080         74.17	     9.434
  38.100         75.83	     9.539
  38.120         55.00	     8.124
  38.140         48.33	     7.616
  38.160         46.67	     7.483
  38.180         60.83	     8.544
  38.200         46.67	     7.483
  38.220         41.67	     7.071
  38.240         51.67	     7.874
  38.260         40.00	     6.928
  38.280         47.50	     7.550
  38.300         31.67	     6.164
  38.320         38.33	     6.782
  38.340         33.33	     6.325
  38.360         38.33	     6.782
  38.380         36.67	     6.633
  38.400         40.83	     7.000
  38.420         33.33	     6.325
  38.440         50.00	     7.746
  38.460         35.00	     6.481
  38.480         38.33	     6.782
  38.500         32.50	     6.245
  38.520         46.67	     7.483
  38.540         43.33	     7.211
  38.560         49.17	     7.681
  38.580         70.00	     9.165
  38.600         53.33	     8.000
  38.620         64.17	     8.775
  38.640         70.00	     9.165
  38.660         60.00	     8.485
  38.680         56.67	     8.246
  38.700         44.17	     7.280
  38.720         50.00	     7.746
  38.740         61.67	     8.602
  38.760         42.50	     7.141
  38.780         50.83	     7.810
  38.800         46.67	     7.483
  38.820         57.50	     8.307
  38.840         50.83	     7.810
  38.860         57.50	     8.307
  38.880         48.33	     7.616
  38.900         60.83	     8.544
  38.920         52.50	     7.937
  38.940         51.67	     7.874
  38.960         75.83	     9.539
  38.980         52.50	     7.937
  39.000         50.00	     7.746
  39.020         50.83	     7.810
  39.040         54.17	     8.062
  39.060         50.83	     7.810
  39.080         60.00	     8.485
  39.100         49.17	     7.681
  39.120         40.00	     6.928
  39.140         38.33	     6.782
  39.160         54.17	     8.062
  39.180         39.17	     6.856
  39.200         49.17	     7.681
  39.220         45.83	     7.416
  39.240         50.00	     7.746
  39.260         38.33	     6.782
  39.280         51.67	     7.874
  39.300         50.00	     7.746
  39.320         36.67	     6.633
  39.340         37.50	     6.708
  39.360         50.00	     7.746
  39.380         39.17	     6.856
  39.400         46.67	     7.483
  39.420         46.67	     7.483
  39.440         39.17	     6.856
  39.460         50.00	     7.746
  39.480         51.67	     7.874
  39.500         65.00	     8.832
  39.520         33.33	     6.325
  39.540         65.00	     8.832
  39.560         76.67	     9.592
  39.580         96.67	    10.770
  39.600        127.50	    12.369
  39.620        130.83	    12.530
  39.640         89.17	    10.344
  39.660         91.67	    10.488
  39.680         79.17	     9.747
  39.700         99.17	    10.909
  39.720        100.00	    10.954
  39.740         81.67	     9.899
  39.760         70.83	     9.220
  39.780         62.50	     8.660
  39.800         70.00	     9.165
  39.820         56.67	     8.246
  39.840         70.83	     9.220
  39.860         57.50	     8.307
  39.880         53.33	     8.000
  39.900         69.17	     9.110
  39.920         61.67	     8.602
  39.940         62.50	     8.660
  39.960         60.83	     8.544
  39.980         57.50	     8.307
  40.000         64.17	     8.775
  40.020         67.50	     9.000
  40.040         63.33	     8.718
  40.060         53.33	     8.000
  40.080         59.17	     8.426
  40.100         67.50	     9.000
  40.120         63.33	     8.718
  40.140         60.83	     8.544
  40.160         55.00	     8.124
  40.180         64.17	     8.775
  40.200         45.83	     7.416
  40.220         62.50	     8.660
  40.240         47.50	     7.550
  40.260         65.83	     8.888
  40.280         54.17	     8.062
  40.300         58.33	     8.367
  40.320         55.00	     8.124
  40.340         50.00	     7.746
  40.360         57.50	     8.307
  40.380         70.00	     9.165
  40.400         86.67	    10.198
  40.420         71.67	     9.274
  40.440         95.00	    10.677
  40.460         68.33	     9.055
  40.480         65.00	     8.832
  40.500         75.83	     9.539
  40.520         60.00	     8.485
  40.540         65.83	     8.888
  40.560         65.83	     8.888
  40.580         63.33	     8.718
  40.600         45.83	     7.416
  40.620         50.83	     7.810
  40.640         41.67	     7.071
  40.660         30.00	     6.000
  40.680         40.83	     7.000
  40.700         40.00	     6.928
  40.720         52.50	     7.937
  40.740         53.33	     8.000
  40.760         45.83	     7.416
  40.780         50.83	     7.810
  40.800         54.17	     8.062
  40.820         39.17	     6.856
  40.840         42.50	     7.141
  40.860         46.67	     7.483
  40.880         60.83	     8.544
  40.900         62.50	     8.660
  40.920         55.00	     8.124
  40.940         54.17	     8.062
  40.960         54.17	     8.062
  40.980         61.67	     8.602
  41.000         58.33	     8.367
  41.020         49.17	     7.681
  41.040         52.50	     7.937
  41.060         51.67	     7.874
  41.080         52.50	     7.937
  41.100         43.33	     7.211
  41.120         40.83	     7.000
  41.140         63.33	     8.718
  41.160         50.00	     7.746
  41.180         45.83	     7.416
  41.200         60.83	     8.544
  41.220         43.33	     7.211
  41.240         48.33	     7.616
  41.260         55.00	     8.124
  41.280         50.83	     7.810
  41.300         67.50	     9.000
  41.320         69.17	     9.110
  41.340         65.83	     8.888
  41.360         62.50	     8.660
  41.380         62.50	     8.660
  41.400         65.00	     8.832
  41.420         76.67	     9.592
  41.440         70.00	     9.165
  41.460         86.67	    10.198
  41.480         74.17	     9.434
  41.500         70.83	     9.220
  41.520         71.67	     9.274
  41.540         61.67	     8.602
  41.560         59.17	     8.426
  41.580         77.50	     9.644
  41.600         73.33	     9.381
  41.620         59.17	     8.426
  41.640         46.67	     7.483
  41.660         65.00	     8.832
  41.680         57.50	     8.307
  41.700         63.33	     8.718
  41.720         72.50	     9.327
  41.740         72.50	     9.327
  41.760         75.00	     9.487
  41.780         77.50	     9.644
  41.800         80.83	     9.849
  41.820         82.50	     9.950
  41.840         75.00	     9.487
  41.860         98.33	    10.863
  41.880         83.33	    10.000
  41.900         69.17	     9.110
  41.920         74.17	     9.434
  41.940         75.83	     9.539
  41.960         80.83	     9.849
  41.980         95.83	    10.724
  42.000         92.50	    10.536
  42.020         80.00	     9.798
  42.040         72.50	     9.327
  42.060         73.33	     9.381
  42.080         71.67	     9.274
  42.100         70.83	     9.220
  42.120         92.50	    10.536
  42.140         73.33	     9.381
  42.160         95.83	    10.724
  42.180         68.33	     9.055
  42.200         73.33	     9.381
  42.220         70.00	     9.165
  42.240         86.67	    10.198
  42.260         82.50	     9.950
  42.280         75.83	     9.539
  42.300         60.00	     8.485
  42.320         71.67	     9.274
  42.340         73.33	     9.381
  42.360         55.00	     8.124
  42.380         84.17	    10.050
  42.400         70.00	     9.165
  42.420        104.17	    11.180
  42.440        104.17	    11.180
  42.460         89.17	    10.344
  42.480        100.00	    10.954
  42.500         89.17	    10.344
  42.520        133.33	    12.649
  42.540        137.50	    12.845
  42.560        146.67	    13.266
  42.580        153.33	    13.565
  42.600        164.17	    14.036
  42.620        146.67	    13.266
  42.640        124.17	    12.207
  42.660        120.83	    12.042
  42.680        117.50	    11.874
  42.700        101.67	    11.045
  42.720        100.83	    11.000
  42.740         88.33	    10.296
  42.760         65.83	     8.888
  42.780         76.67	     9.592
  42.800         59.17	     8.426
  42.820         69.17	     9.110
  42.840         64.17	     8.775
  42.860         53.33	     8.000
  42.880         55.83	     8.185
  42.900         52.50	     7.937
  42.920         60.00	     8.485
  42.940         55.83	     8.185
  42.960         52.50	     7.937
  42.980         51.67	     7.874
  43.000         52.50	     7.937
  43.020         58.33	     8.367
  43.040         60.00	     8.485
  43.060         46.67	     7.483
  43.080         56.67	     8.246
  43.100         62.50	     8.660
  43.120         60.83	     8.544
  43.140         45.83	     7.416
  43.160         47.50	     7.550
  43.180         45.83	     7.416
  43.200         42.50	     7.141
  43.220         49.17	     7.681
  43.240         36.67	     6.633
  43.260         48.33	     7.616
  43.280         35.00	     6.481
  43.300         55.83	     8.185
  43.320         51.67	     7.874
  43.340         32.50	     6.245
  43.360         39.17	     6.856
  43.380         38.33	     6.782
  43.400         47.50	     7.550
  43.420         40.00	     6.928
  43.440         40.83	     7.000
  43.460         59.17	     8.426
  43.480         42.50	     7.141
  43.500         52.50	     7.937
  43.520         49.17	     7.681
  43.540         40.00	     6.928
  43.560         45.83	     7.416
  43.580         40.83	     7.000
  43.600         58.33	     8.367
  43.620         45.00	     7.348
  43.640         49.17	     7.681
  43.660         38.33	     6.782
  43.680         55.00	     8.124
  43.700         60.00	     8.485
  43.720         49.17	     7.681
  43.740         38.33	     6.782
  43.760         38.33	     6.782
  43.780         50.00	     7.746
  43.800         36.67	     6.633
  43.820         51.67	     7.874
  43.840         42.50	     7.141
  43.860         44.17	     7.280
  43.880         52.50	     7.937
  43.900         54.17	     8.062
  43.920         37.50	     6.708
  43.940         41.67	     7.071
  43.960         38.33	     6.782
  43.980         41.67	     7.071
  44.000         38.33	     6.782
  44.020         47.50	     7.550
  44.040         38.33	     6.782
  44.060         46.67	     7.483
  44.080         38.33	     6.782
  44.100         44.17	     7.280
  44.120         52.50	     7.937
  44.140         40.83	     7.000
  44.160         46.67	     7.483
  44.180         51.67	     7.874
  44.200         37.50	     6.708
  44.220         50.83	     7.810
  44.240         41.67	     7.071
  44.260         45.83	     7.416
  44.280         52.50	     7.937
  44.300         44.17	     7.280
  44.320         45.83	     7.416
  44.340         49.17	     7.681
  44.360         38.33	     6.782
  44.380         65.00	     8.832
  44.400         44.17	     7.280
  44.420         45.83	     7.416
  44.440         41.67	     7.071
  44.460         41.67	     7.071
  44.480         41.67	     7.071
  44.500         52.50	     7.937
  44.520         43.33	     7.211
  44.540         40.00	     6.928
  44.560         38.33	     6.782
  44.580         37.50	     6.708
  44.600         41.67	     7.071
  44.620         41.67	     7.071
  44.640         43.33	     7.211
  44.660         38.33	     6.782
  44.680         44.17	     7.280
  44.700         41.67	     7.071
  44.720         46.67	     7.483
  44.740         42.50	     7.141
  44.760         50.00	     7.746
  44.780         50.00	     7.746
  44.800         45.00	     7.348
  44.820         60.00	     8.485
  44.840         59.17	     8.426
  44.860         54.17	     8.062
  44.880         57.50	     8.307
  44.900         62.50	     8.660
  44.920         57.50	     8.307
  44.940         64.17	     8.775
  44.960         59.17	     8.426
  44.980         67.50	     9.000
  45.000         75.83	     9.539
  45.020         81.67	     9.899
  45.040         80.00	     9.798
  45.060         95.83	    10.724
  45.080         85.00	    10.100
  45.100         80.00	     9.798
  45.120         90.83	    10.440
  45.140         86.67	    10.198
  45.160         89.17	    10.344
  45.180         79.17	     9.747
  45.200         91.67	    10.488
  45.220         95.83	    10.724
  45.240         96.67	    10.770
  45.260         98.33	    10.863
  45.280         90.00	    10.392
  45.300         86.67	    10.198
  45.320        100.83	    11.000
  45.340        108.33	    11.402
  45.360        110.00	    11.489
  45.380        106.67	    11.314
  45.400        101.67	    11.045
  45.420        123.33	    12.166
  45.440        120.83	    12.042
  45.460        105.00	    11.225
  45.480        130.00	    12.490
  45.500        102.50	    11.091
  45.520        140.00	    12.961
  45.540        181.67	    14.765
  45.560        184.17	    14.866
  45.580        194.17	    15.264
  45.600        215.83	    16.093
  45.620        215.00	    16.062
  45.640        260.00	    17.664
  45.660        278.33	    18.276
  45.680        253.33	    17.436
  45.700        289.17	    18.628
  45.720        242.50	    17.059
  45.740        248.33	    17.263
  45.760        226.67	    16.492
  45.780        193.33	    15.232
  45.800        180.00	    14.697
  45.820        173.33	    14.422
  45.840        148.33	    13.342
  45.860        140.83	    13.000
  45.880        130.00	    12.490
  45.900        154.17	    13.601
  45.920        135.00	    12.728
  45.940        125.00	    12.247
  45.960         82.50	     9.950
  45.980         79.17	     9.747
  46.000         65.83	     8.888
  46.020         86.67	    10.198
  46.040         76.67	     9.592
  46.060         92.50	    10.536
  46.080         80.83	     9.849
  46.100         70.00	     9.165
  46.120         78.33	     9.695
  46.140         71.67	     9.274
  46.160         65.83	     8.888
  46.180         90.00	    10.392
  46.200         78.33	     9.695
  46.220         63.33	     8.718
  46.240         69.17	     9.110
  46.260         72.50	     9.327
  46.280         59.17	     8.426
  46.300         44.17	     7.280
  46.320         64.17	     8.775
  46.340         70.00	     9.165
  46.360         50.83	     7.810
  46.380         56.67	     8.246
  46.400         60.00	     8.485
  46.420         55.83	     8.185
  46.440         37.50	     6.708
  46.460         49.17	     7.681
  46.480         46.67	     7.483
  46.500         38.33	     6.782
  46.520         51.67	     7.874
  46.540         44.17	     7.280
  46.560         42.50	     7.141
  46.580         30.83	     6.083
  46.600         40.00	     6.928
  46.620         47.50	     7.550
  46.640         50.83	     7.810
  46.660         57.50	     8.307
  46.680         53.33	     8.000
  46.700         41.67	     7.071
  46.720         42.50	     7.141
  46.740         42.50	     7.141
  46.760         35.00	     6.481
  46.780         39.17	     6.856
  46.800         41.67	     7.071
  46.820         41.67	     7.071
  46.840         40.83	     7.000
  46.860         53.33	     8.000
  46.880         43.33	     7.211
  46.900         32.50	     6.245
  46.920         38.33	     6.782
  46.940         38.33	     6.782
  46.960         41.67	     7.071
  46.980         47.50	     7.550
  47.000         52.50	     7.937
  47.020         34.17	     6.403
  47.040         38.33	     6.782
  47.060         35.83	     6.557
  47.080         35.83	     6.557
  47.100         50.00	     7.746
  47.120         43.33	     7.211
  47.140         46.67	     7.483
  47.160         37.50	     6.708
  47.180         51.67	     7.874
  47.200         41.67	     7.071
  47.220         38.33	     6.782
  47.240         55.00	     8.124
  47.260         50.83	     7.810
  47.280         43.33	     7.211
  47.300         46.67	     7.483
  47.320         57.50	     8.307
  47.340         45.00	     7.348
  47.360         35.00	     6.481
  47.380         50.83	     7.810
  47.400         51.67	     7.874
  47.420         39.17	     6.856
  47.440         31.67	     6.164
  47.460         36.67	     6.633
  47.480         33.33	     6.325
  47.500         33.33	     6.325
  47.520         40.83	     7.000
  47.540         37.50	     6.708
  47.560         37.50	     6.708
  47.580         30.00	     6.000
  47.600         48.33	     7.616
  47.620         33.33	     6.325
  47.640         33.33	     6.325
  47.660         41.67	     7.071
  47.680         28.33	     5.831
  47.700         33.33	     6.325
  47.720         45.83	     7.416
  47.740         30.83	     6.083
  47.760         33.33	     6.325
  47.780         33.33	     6.325
  47.800         35.83	     6.557
  47.820         30.83	     6.083
  47.840         38.33	     6.782
  47.860         28.33	     5.831
  47.880         43.33	     7.211
  47.900         44.17	     7.280
  47.920         31.67	     6.164
  47.940         26.67	     5.657
  47.960         46.67	     7.483
  47.980         36.67	     6.633
  48.000         34.17	     6.403
  48.020         52.50	     7.937
  48.040         47.50	     7.550
  48.060         57.50	     8.307
  48.080         51.67	     7.874
  48.100         45.83	     7.416
  48.120         57.50	     8.307
  48.140         56.67	     8.246
  48.160         50.00	     7.746
  48.180         62.50	     8.660
  48.200         58.33	     8.367
  48.220         47.50	     7.550
  48.240         65.83	     8.888
  48.260         65.83	     8.888
  48.280         59.17	     8.426
  48.300         69.17	     9.110
  48.320         74.17	     9.434
  48.340         53.33	     8.000
  48.360         56.67	     8.246
  48.380         74.17	     9.434
  48.400         55.00	     8.124
  48.420         59.17	     8.426
  48.440         53.33	     8.000
  48.460         64.17	     8.775
  48.480         53.33	     8.000
  48.500         65.00	     8.832
  48.520         54.17	     8.062
  48.540         50.00	     7.746
  48.560         50.83	     7.810
  48.580         45.00	     7.348
  48.600         45.83	     7.416
  48.620         50.00	     7.746
  48.640         59.17	     8.426
  48.660         42.50	     7.141
  48.680         48.33	     7.616
  48.700         40.83	     7.000
  48.720         43.33	     7.211
  48.740         30.83	     6.083
  48.760         38.33	     6.782
  48.780         40.83	     7.000
  48.800         43.33	     7.211
  48.820         58.33	     8.367
  48.840         56.67	     8.246
  48.860         45.00	     7.348
  48.880         51.67	     7.874
  48.900         48.33	     7.616
  48.920         42.50	     7.141
  48.940         45.00	     7.348
  48.960         48.33	     7.616
  48.980         50.00	     7.746
  49.000         55.00	     8.124
  49.020         39.17	     6.856
  49.040         41.67	     7.071
  49.060         45.00	     7.348
  49.080         36.67	     6.633
  49.100         29.17	     5.916
  49.120         38.33	     6.782
  49.140         45.83	     7.416
  49.160         42.50	     7.141
  49.180         44.17	     7.280
  49.200         41.67	     7.071
  49.220         40.00	     6.928
  49.240         38.33	     6.782
  49.260         42.50	     7.141
  49.280         46.67	     7.483
  49.300         63.33	     8.718
  49.320         76.67	     9.592
  49.340         67.50	     9.000
  49.360         62.50	     8.660
  49.380         64.17	     8.775
  49.400         58.33	     8.367
  49.420         57.50	     8.307
  49.440         41.67	     7.071
  49.460         45.00	     7.348
  49.480         72.50	     9.327
  49.500         55.83	     8.185
  49.520         52.50	     7.937
  49.540         51.67	     7.874
  49.560         45.00	     7.348
  49.580         50.00	     7.746
  49.600         42.50	     7.141
  49.620         35.00	     6.481
  49.640         54.17	     8.062
  49.660         50.00	     7.746
  49.680         37.50	     6.708
  49.700         58.33	     8.367
  49.720         45.00	     7.348
  49.740         53.33	     8.000
  49.760         45.83	     7.416
  49.780         60.83	     8.544
  49.800         50.00	     7.746
  49.820         46.67	     7.483
  49.840         55.83	     8.185
  49.860         60.00	     8.485
  49.880         58.33	     8.367
  49.900         68.33	     9.055
  49.920         78.33	     9.695
  49.940         58.33	     8.367
  49.960         76.67	     9.592
  49.980         59.17	     8.426
  50.000         80.00	     9.798
  50.020         75.00	     9.487
  50.040         92.50	    10.536
  50.060         93.33	    10.583
  50.080         98.33	    10.863
  50.100         82.50	     9.950
  50.120         67.50	     9.000
  50.140         68.33	     9.055
  50.160         75.83	     9.539
  50.180        115.00	    11.747
  50.200        111.67	    11.576
  50.220        122.50	    12.124
  50.240        200.00	    15.492
  50.260        277.50	    18.248
  50.280        230.83	    16.643
  50.300        185.00	    14.900
  50.320        136.67	    12.806
  50.340         89.17	    10.344
  50.360        121.67	    12.083
  50.380        136.67	    12.806
  50.400        165.83	    14.107
  50.420        130.83	    12.530
  50.440        105.00	    11.225
  50.460         60.00	     8.485
  50.480         65.00	     8.832
  50.500         60.83	     8.544
  50.520         39.17	     6.856
  50.540         41.67	     7.071
  50.560         47.50	     7.550
  50.580         45.83	     7.416
  50.600         50.83	     7.810
  50.620         49.17	     7.681
  50.640         40.83	     7.000
  50.660         43.33	     7.211
  50.680         65.00	     8.832
  50.700         54.17	     8.062
  50.720         64.17	     8.775
  50.740         60.00	     8.485
  50.760         65.83	     8.888
  50.780         65.83	     8.888
  50.800         52.50	     7.937
  50.820         47.50	     7.550
  50.840         55.83	     8.185
  50.860         65.00	     8.832
  50.880         58.33	     8.367
  50.900         64.17	     8.775
  50.920         63.33	     8.718
  50.940         45.83	     7.416
  50.960         44.17	     7.280
  50.980         50.83	     7.810
  51.000         40.00	     6.928
  51.020         45.00	     7.348
  51.040         34.17	     6.403
  51.060         39.17	     6.856
  51.080         35.83	     6.557
  51.100         38.33	     6.782
  51.120         26.67	     5.657
  51.140         27.50	     5.745
  51.160         45.83	     7.416
  51.180         35.83	     6.557
  51.200         42.50	     7.141
  51.220         56.67	     8.246
  51.240         52.50	     7.937
  51.260         70.83	     9.220
  51.280         66.67	     8.944
  51.300         62.50	     8.660
  51.320         60.83	     8.544
  51.340         45.83	     7.416
  51.360         43.33	     7.211
  51.380         55.83	     8.185
  51.400         53.33	     8.000
  51.420         72.50	     9.327
  51.440         52.50	     7.937
  51.460         60.00	     8.485
  51.480         52.50	     7.937
  51.500         56.67	     8.246
  51.520         60.00	     8.485
  51.540         55.83	     8.185
  51.560         42.50	     7.141
  51.580         55.00	     8.124
  51.600         43.33	     7.211
  51.620         46.67	     7.483
  51.640         40.00	     6.928
  51.660         33.33	     6.325
  51.680         47.50	     7.550
  51.700         30.83	     6.083
  51.720         28.33	     5.831
  51.740         34.17	     6.403
  51.760         40.00	     6.928
  51.780         29.17	     5.916
  51.800         31.67	     6.164
  51.820         32.50	     6.245
  51.840         34.17	     6.403
  51.860         25.83	     5.568
  51.880         30.00	     6.000
  51.900         29.17	     5.916
  51.920         26.67	     5.657
  51.940         26.67	     5.657
  51.960         37.50	     6.708
  51.980         35.83	     6.557
  52.000         43.33	     7.211
  52.020         29.17	     5.916
  52.040         26.67	     5.657
  52.060         37.50	     6.708
  52.080         28.33	     5.831
  52.100         28.33	     5.831
  52.120         35.00	     6.481
  52.140         26.67	     5.657
  52.160         37.50	     6.708
  52.180         37.50	     6.708
  52.200         49.17	     7.681
  52.220         33.33	     6.325
  52.240         38.33	     6.782
  52.260         45.00	     7.348
  52.280         43.33	     7.211
  52.300         39.17	     6.856
  52.320         39.17	     6.856
  52.340         49.17	     7.681
  52.360         40.00	     6.928
  52.380         50.83	     7.810
  52.400         59.17	     8.426
  52.420         37.50	     6.708
  52.440         44.17	     7.280
  52.460         41.67	     7.071
  52.480         31.67	     6.164
  52.500         63.33	     8.718
  52.520         50.83	     7.810
  52.540         50.83	     7.810
  52.560         59.17	     8.426
  52.580         44.17	     7.280
  52.600         45.83	     7.416
  52.620         56.67	     8.246
  52.640         57.50	     8.307
  52.660         50.00	     7.746
  52.680         48.33	     7.616
  52.700         47.50	     7.550
  52.720         45.83	     7.416
  52.740         55.00	     8.124
  52.760         50.00	     7.746
  52.780         40.00	     6.928
  52.800         60.00	     8.485
  52.820         49.17	     7.681
  52.840         44.17	     7.280
  52.860         50.83	     7.810
  52.880         51.67	     7.874
  52.900         52.50	     7.937
  52.920         65.83	     8.888
  52.940         52.50	     7.937
  52.960         57.50	     8.307
  52.980         69.17	     9.110
  53.000         60.00	     8.485
  53.020         50.83	     7.810
  53.040         72.50	     9.327
  53.060         55.00	     8.124
  53.080         66.67	     8.944
  53.100         67.50	     9.000
  53.120         70.00	     9.165
  53.140         60.00	     8.485
  53.160         61.67	     8.602
  53.180         52.50	     7.937
  53.200         50.83	     7.810
  53.220         58.33	     8.367
  53.240         55.00	     8.124
  53.260         61.67	     8.602
  53.280         54.17	     8.062
  53.300         63.33	     8.718
  53.320         51.67	     7.874
  53.340         55.00	     8.124
  53.360         58.33	     8.367
  53.380         60.83	     8.544
  53.400         45.83	     7.416
  53.420         55.83	     8.185
  53.440         50.00	     7.746
  53.460         51.67	     7.874
  53.480         45.00	     7.348
  53.500         55.83	     8.185
  53.520         59.17	     8.426
  53.540         44.17	     7.280
  53.560         48.33	     7.616
  53.580         45.83	     7.416
  53.600         45.83	     7.416
  53.620         39.17	     6.856
  53.640         49.17	     7.681
  53.660         54.17	     8.062
  53.680         45.00	     7.348
  53.700         39.17	     6.856
  53.720         41.67	     7.071
  53.740         43.33	     7.211
  53.760         44.17	     7.280
  53.780         38.33	     6.782
  53.800         50.00	     7.746
  53.820         40.00	     6.928
  53.840         45.83	     7.416
  53.860         46.67	     7.483
  53.880         46.67	     7.483
  53.900         45.83	     7.416
  53.920         48.33	     7.616
  53.940         36.67	     6.633
  53.960         45.00	     7.348
  53.980         38.33	     6.782
  54.000         54.17	     8.062
  54.020         36.67	     6.633
  54.040         35.83	     6.557
  54.060         31.67	     6.164
  54.080         37.50	     6.708
  54.100         39.17	     6.856
  54.120         37.50	     6.708
  54.140         38.33	     6.782
  54.160         33.33	     6.325
  54.180         37.50	     6.708
  54.200         38.33	     6.782
  54.220         45.83	     7.416
  54.240         39.17	     6.856
  54.260         53.33	     8.000
  54.280         50.83	     7.810
  54.300         32.50	     6.245
  54.320         37.50	     6.708
  54.340         45.83	     7.416
  54.360         45.83	     7.416
  54.380         44.17	     7.280
  54.400         46.67	     7.483
  54.420         46.67	     7.483
  54.440         47.50	     7.550
  54.460         61.67	     8.602
  54.480         60.00	     8.485
  54.500         60.83	     8.544
  54.520         59.17	     8.426
  54.540         52.50	     7.937
  54.560         50.83	     7.810
  54.580         55.00	     8.124
  54.600         65.00	     8.832
  54.620         60.00	     8.485
  54.640         58.33	     8.367
  54.660         62.50	     8.660
  54.680         72.50	     9.327
  54.700         79.17	     9.747
  54.720         80.00	     9.798
  54.740         70.00	     9.165
  54.760         68.33	     9.055
  54.780         70.83	     9.220
  54.800         59.17	     8.426
  54.820         65.83	     8.888
  54.840         65.00	     8.832
  54.860         72.50	     9.327
  54.880         53.33	     8.000
  54.900         62.50	     8.660
  54.920         75.83	     9.539
  54.940         85.83	    10.149
  54.960         94.17	    10.630
  54.980         88.33	    10.296
  55.000        101.67	    11.045
  55.020        103.33	    11.136
  55.040         80.00	     9.798
  55.060         86.67	    10.198
  55.080         68.33	     9.055
  55.100         67.50	     9.000
  55.120         77.50	     9.644
  55.140         87.50	    10.247
  55.160         97.50	    10.817
  55.180         89.17	    10.344
  55.200         75.00	     9.487
  55.220         73.33	     9.381
  55.240         60.83	     8.544
  55.260         74.17	     9.434
  55.280         75.83	     9.539
  55.300         80.83	     9.849
  55.320         71.67	     9.274
  55.340         77.50	     9.644
  55.360         85.00	    10.100
  55.380         90.00	    10.392
  55.400         80.83	     9.849
  55.420         86.67	    10.198
  55.440         94.17	    10.630
  55.460         97.50	    10.817
  55.480         88.33	    10.296
  55.500         85.00	    10.100
  55.520         70.00	     9.165
  55.540         80.00	     9.798
  55.560         88.33	    10.296
  55.580         68.33	     9.055
  55.600         70.00	     9.165
  55.620         72.50	     9.327
  55.640         74.17	     9.434
  55.660         64.17	     8.775
  55.680         77.50	     9.644
  55.700         70.83	     9.220
  55.720         80.00	     9.798
  55.740         71.67	     9.274
  55.760         76.67	     9.592
  55.780         87.50	    10.247
  55.800         71.67	     9.274
  55.820         94.17	    10.630
  55.840        100.83	    11.000
  55.860         87.50	    10.247
  55.880        108.33	    11.402
  55.900        117.50	    11.874
  55.920        120.83	    12.042
  55.940        119.17	    11.958
  55.960        116.67	    11.832
  55.980        125.83	    12.288
  56.000        121.67	    12.083
  56.020        115.83	    11.790
  56.040        110.00	    11.489
  56.060         95.83	    10.724
  56.080        106.67	    11.314
  56.100         76.67	     9.592
  56.120        100.83	    11.000
  56.140         80.00	     9.798
  56.160         87.50	    10.247
  56.180         63.33	     8.718
  56.200         60.00	     8.485
  56.220         64.17	     8.775
  56.240         54.17	     8.062
  56.260         57.50	     8.307
  56.280         55.83	     8.185
  56.300         50.00	     7.746
  56.320         50.00	     7.746
  56.340         41.67	     7.071
  56.360         38.33	     6.782
  56.380         51.67	     7.874
  56.400         45.00	     7.348
  56.420         50.00	     7.746
  56.440         39.17	     6.856
  56.460         48.33	     7.616
  56.480         35.00	     6.481
  56.500         45.83	     7.416
  56.520         43.33	     7.211
  56.540         35.83	     6.557
  56.560         33.33	     6.325
  56.580         43.33	     7.211
  56.600         39.17	     6.856
  56.620         46.67	     7.483
  56.640         39.17	     6.856
  56.660         46.67	     7.483
  56.680         45.00	     7.348
  56.700         41.67	     7.071
  56.720         26.67	     5.657
  56.740         55.00	     8.124
  56.760         45.00	     7.348
  56.780         41.67	     7.071
  56.800         52.50	     7.937
  56.820         47.50	     7.550
  56.840         41.67	     7.071
  56.860         35.83	     6.557
  56.880         41.67	     7.071
  56.900         50.00	     7.746
  56.920         48.33	     7.616
  56.940         55.83	     8.185
  56.960         46.67	     7.483
  56.980         49.17	     7.681
  57.000         39.17	     6.856
  57.020         49.17	     7.681
  57.040         29.17	     5.916
  57.060         50.83	     7.810
  57.080         38.33	     6.782
  57.100         41.67	     7.071
  57.120         43.33	     7.211
  57.140         39.17	     6.856
  57.160         35.83	     6.557
  57.180         49.17	     7.681
  57.200         37.50	     6.708
  57.220         39.17	     6.856
  57.240         43.33	     7.211
  57.260         45.83	     7.416
  57.280         25.83	     5.568
  57.300         35.00	     6.481
  57.320         36.67	     6.633
  57.340         60.83	     8.544
  57.360         34.17	     6.403
  57.380         47.50	     7.550
  57.400         55.83	     8.185
  57.420         40.00	     6.928
  57.440         41.67	     7.071
  57.460         38.33	     6.782
  57.480         30.83	     6.083
  57.500         44.17	     7.280
  57.520         35.83	     6.557
  57.540         45.00	     7.348
  57.560         43.33	     7.211
  57.580         44.17	     7.280
  57.600         61.67	     8.602
  57.620         45.00	     7.348
  57.640         45.83	     7.416
  57.660         46.67	     7.483
  57.680         40.83	     7.000
  57.700         47.50	     7.550
  57.720         37.50	     6.708
  57.740         48.33	     7.616
  57.760         40.83	     7.000
  57.780         35.83	     6.557
  57.800         37.50	     6.708
  57.820         47.50	     7.550
  57.840         43.33	     7.211
  57.860         35.83	     6.557
  57.880         40.83	     7.000
  57.900         40.00	     6.928
  57.920         49.17	     7.681
  57.940         39.17	     6.856
  57.960         44.17	     7.280
  57.980         36.67	     6.633
  58.000         40.00	     6.928
  58.020         43.33	     7.211
  58.040         34.17	     6.403
  58.060         34.17	     6.403
  58.080         26.67	     5.657
  58.100         37.50	     6.708
  58.120         30.00	     6.000
  58.140         33.33	     6.325
  58.160         32.50	     6.245
  58.180         43.33	     7.211
  58.200         37.50	     6.708
  58.220         43.33	     7.211
  58.240         37.50	     6.708
  58.260         35.83	     6.557
  58.280         45.83	     7.416
  58.300         37.50	     6.708
  58.320         45.00	     7.348
  58.340         44.17	     7.280
  58.360         44.17	     7.280
  58.380         45.00	     7.348
  58.400         40.83	     7.000
  58.420         40.83	     7.000
  58.440         34.17	     6.403
  58.460         40.83	     7.000
  58.480         46.67	     7.483
  58.500         37.50	     6.708
  58.520         45.83	     7.416
  58.540         44.17	     7.280
  58.560         46.67	     7.483
  58.580         41.67	     7.071
  58.600         40.83	     7.000
  58.620         51.67	     7.874
  58.640         50.00	     7.746
  58.660         55.83	     8.185
  58.680         51.67	     7.874
  58.700         50.00	     7.746
  58.720         55.00	     8.124
  58.740         54.17	     8.062
  58.760         41.67	     7.071
  58.780         68.33	     9.055
  58.800         51.67	     7.874
  58.820         61.67	     8.602
  58.840         68.33	     9.055
  58.860         57.50	     8.307
  58.880         54.17	     8.062
  58.900         65.83	     8.888
  58.920         74.17	     9.434
  58.940         60.83	     8.544
  58.960         65.83	     8.888
  58.980         86.67	    10.198
  59.000         68.33	     9.055
  59.020         50.83	     7.810
  59.040         62.50	     8.660
  59.060         79.17	     9.747
  59.080         74.17	     9.434
  59.100         65.83	     8.888
  59.120         80.00	     9.798
  59.140         74.17	     9.434
  59.160         93.33	    10.583
  59.180         80.00	     9.798
  59.200         65.83	     8.888
  59.220         79.17	     9.747
  59.240         51.67	     7.874
  59.260         68.33	     9.055
  59.280         71.67	     9.274
  59.300         70.00	     9.165
  59.320         68.33	     9.055
  59.340         72.50	     9.327
  59.360         83.33	    10.000
  59.380         65.83	     8.888
  59.400         75.00	     9.487
  59.420         57.50	     8.307
  59.440         64.17	     8.775
  59.460         68.33	     9.055
  59.480         61.67	     8.602
  59.500         70.00	     9.165
  59.520         67.50	     9.000
  59.540         65.00	     8.832
  59.560         54.17	     8.062
  59.580         51.67	     7.874
  59.600         63.33	     8.718
  59.620         68.33	     9.055
  59.640         63.33	     8.718
  59.660         84.17	    10.050
  59.680         68.33	     9.055
  59.700         63.33	     8.718
  59.720         49.17	     7.681
  59.740         54.17	     8.062
  59.760         55.00	     8.124
  59.780         54.17	     8.062
  59.800         65.83	     8.888
  59.820         72.50	     9.327
  59.840         70.83	     9.220
  59.860         80.83	     9.849
  59.880         67.50	     9.000
  59.900         69.17	     9.110
  59.920         75.83	     9.539
  59.940         69.17	     9.110
  59.960         93.33	    10.583
  59.980         87.50	    10.247
  60.000         96.67	    10.770
  60.020        124.17	    12.207
  60.040        155.00	    13.638
  60.060        173.33	    14.422
  60.080        192.50	    15.199
  60.100        178.33	    14.629
  60.120        179.17	    14.663
  60.140        145.83	    13.229
  60.160        105.83	    11.269
  60.180         94.17	    10.630
  60.200        103.33	    11.136
  60.220        133.33	    12.649
  60.240        125.83	    12.288
  60.260        125.00	    12.247
  60.280        108.33	    11.402
  60.300         90.83	    10.440
  60.320         69.17	     9.110
  60.340         71.67	     9.274
  60.360         80.83	     9.849
  60.380         57.50	     8.307
  60.400         62.50	     8.660
  60.420         56.67	     8.246
  60.440         57.50	     8.307
  60.460         57.50	     8.307
  60.480         48.33	     7.616
  60.500         50.00	     7.746
  60.520         65.83	     8.888
  60.540         51.67	     7.874
  60.560         63.33	     8.718
  60.580         48.33	     7.616
  60.600         61.67	     8.602
  60.620         50.83	     7.810
  60.640         65.00	     8.832
  60.660         62.50	     8.660
  60.680         45.00	     7.348
  60.700         51.67	     7.874
  60.720         54.17	     8.062
  60.740         64.17	     8.775
  60.760         67.50	     9.000
  60.780         60.83	     8.544
  60.800         70.00	     9.165
  60.820         87.50	    10.247
  60.840         86.67	    10.198
  60.860         79.17	     9.747
  60.880         81.67	     9.899
  60.900         72.50	     9.327
  60.920         83.33	    10.000
  60.940         83.33	    10.000
  60.960         80.83	     9.849
  60.980         87.50	    10.247
  61.000        100.00	    10.954
  61.020         86.67	    10.198
  61.040         85.83	    10.149
  61.060         80.00	     9.798
  61.080         65.00	     8.832
  61.100         80.00	     9.798
  61.120         69.17	     9.110
  61.140         59.17	     8.426
  61.160         73.33	     9.381
  61.180         75.83	     9.539
  61.200         67.50	     9.000
  61.220         67.50	     9.000
  61.240         67.50	     9.000
  61.260         68.33	     9.055
  61.280         58.33	     8.367
  61.300         69.17	     9.110
  61.320         58.33	     8.367
  61.340         60.83	     8.544
  61.360         63.33	     8.718
  61.380         61.67	     8.602
  61.400         65.00	     8.832
  61.420         64.17	     8.775
  61.440         67.50	     9.000
  61.460         57.50	     8.307
  61.480         65.83	     8.888
  61.500         65.83	     8.888
  61.520         80.83	     9.849
  61.540         72.50	     9.327
  61.560         89.17	    10.344
  61.580        101.67	    11.045
  61.600         80.83	     9.849
  61.620        102.50	    11.091
  61.640         95.83	    10.724
  61.660         94.17	    10.630
  61.680         95.00	    10.677
  61.700         99.17	    10.909
  61.720         89.17	    10.344
  61.740         94.17	    10.630
  61.760         89.17	    10.344
  61.780         86.67	    10.198
  61.800         87.50	    10.247
  61.820         91.67	    10.488
  61.840        106.67	    11.314
  61.860         98.33	    10.863
  61.880         76.67	     9.592
  61.900         65.00	     8.832
  61.920         77.50	     9.644
  61.940         50.83	     7.810
  61.960         62.50	     8.660
  61.980         60.83	     8.544
  62.000         76.67	     9.592
  62.020         80.83	     9.849
  62.040         70.00	     9.165
  62.060         62.50	     8.660
  62.080         73.33	     9.381
  62.100         67.50	     9.000
  62.120         67.50	     9.000
  62.140         50.00	     7.746
  62.160         55.00	     8.124
  62.180         65.83	     8.888
  62.200         51.67	     7.874
  62.220         53.33	     8.000
  62.240         65.00	     8.832
  62.260         67.50	     9.000
  62.280         54.17	     8.062
  62.300         46.67	     7.483
  62.320         53.33	     8.000
  62.340         49.17	     7.681
  62.360         48.33	     7.616
  62.380         45.83	     7.416
  62.400         50.83	     7.810
  62.420         45.83	     7.416
  62.440         53.33	     8.000
  62.460         43.33	     7.211
  62.480         40.83	     7.000
  62.500         35.83	     6.557
  62.520         45.00	     7.348
  62.540         47.50	     7.550
  62.560         31.67	     6.164
  62.580         60.00	     8.485
  62.600         37.50	     6.708
  62.620         41.67	     7.071
  62.640         37.50	     6.708
  62.660         44.17	     7.280
  62.680         50.83	     7.810
  62.700         58.33	     8.367
  62.720         32.50	     6.245
  62.740         46.67	     7.483
  62.760         34.17	     6.403
  62.780         39.17	     6.856
  62.800         35.83	     6.557
  62.820         49.17	     7.681
  62.840         50.00	     7.746
  62.860         37.50	     6.708
  62.880         41.67	     7.071
  62.900         41.67	     7.071
  62.920         40.00	     6.928
  62.940         42.50	     7.141
  62.960         32.50	     6.245
  62.980         43.33	     7.211
  63.000         60.00	     8.485
  63.020         47.50	     7.550
  63.040         42.50	     7.141
  63.060         39.17	     6.856
  63.080         40.00	     6.928
  63.100         50.83	     7.810
  63.120         52.50	     7.937
  63.140         45.00	     7.348
  63.160         47.50	     7.550
  63.180         41.67	     7.071
  63.200         42.50	     7.141
  63.220         45.83	     7.416
  63.240         42.50	     7.141
  63.260         53.33	     8.000
  63.280         57.50	     8.307
  63.300         45.00	     7.348
  63.320         40.83	     7.000
  63.340         42.50	     7.141
  63.360         45.00	     7.348
  63.380         45.83	     7.416
  63.400         31.67	     6.164
  63.420         33.33	     6.325
  63.440         34.17	     6.403
  63.460         33.33	     6.325
  63.480         44.17	     7.280
  63.500         63.33	     8.718
  63.520         44.17	     7.280
  63.540         37.50	     6.708
  63.560         40.83	     7.000
  63.580         56.67	     8.246
  63.600         43.33	     7.211
  63.620         53.33	     8.000
  63.640         44.17	     7.280
  63.660         56.67	     8.246
  63.680         51.67	     7.874
  63.700         50.00	     7.746
  63.720         39.17	     6.856
  63.740         40.00	     6.928
  63.760         50.00	     7.746
  63.780         46.67	     7.483
  63.800         40.83	     7.000
  63.820         54.17	     8.062
  63.840         72.50	     9.327
  63.860         51.67	     7.874
  63.880         55.83	     8.185
  63.900         41.67	     7.071
  63.920         59.17	     8.426
  63.940         51.67	     7.874
  63.960         54.17	     8.062
  63.980         53.33	     8.000
  64.000         50.83	     7.810
  64.020         55.83	     8.185
  64.040         57.50	     8.307
  64.060         64.17	     8.775
  64.080         63.33	     8.718
  64.100         59.17	     8.426
  64.120         93.33	    10.583
  64.140        110.00	    11.489
  64.160         90.83	    10.440
  64.180         83.33	    10.000
  64.200         79.17	     9.747
  64.220         65.00	     8.832
  64.240         71.67	     9.274
  64.260         48.33	     7.616
  64.280         64.17	     8.775
  64.300         65.83	     8.888
  64.320         51.67	     7.874
  64.340         73.33	     9.381
  64.360         67.50	     9.000
  64.380         65.83	     8.888
  64.400         63.33	     8.718
  64.420         42.50	     7.141
  64.440         49.17	     7.681
  64.460         38.33	     6.782
  64.480         44.17	     7.280
  64.500         57.50	     8.307
  64.520         45.83	     7.416
  64.540         43.33	     7.211
  64.560         45.00	     7.348
  64.580         50.83	     7.810
  64.600         45.83	     7.416
  64.620         43.33	     7.211
  64.640         34.17	     6.403
  64.660         45.83	     7.416
  64.680         40.83	     7.000
  64.700         44.17	     7.280
  64.720         50.83	     7.810
  64.740         46.67	     7.483
  64.760         50.00	     7.746
  64.780         50.83	     7.810
  64.800         40.83	     7.000
  64.820         43.33	     7.211
  64.840         52.50	     7.937
  64.860         61.67	     8.602
  64.880         52.50	     7.937
  64.900         62.50	     8.660
  64.920         49.17	     7.681
  64.940         49.17	     7.681
  64.960         60.83	     8.544
  64.980         55.83	     8.185
  65.000         45.83	     7.416
