
Filename:
	C:\Program Files\Thermo Electron\WinXRD\Datafiles\F_HERMAN\GEO\GG_7_SFT.raw

File Created:
	October 13, 2020 - 12:33 PM

Specimen Id:
	GG7 SFT

Specimen Name:
	

Specimen Description:
	

Comment:
Scan Type: 2Theta Scan
Start Angle: 3 deg.
Stop Angle: 65 deg.
Num Points: 3101
Step Size: 0.02 deg.
Scan Rate: 1.000000
Scan Mode: Continuous
Wavelength: 1.540562
\Kalpha1: 1.540562	\Kalpha2: 1.544390	\Kbeta: 1.392218

Optics:
		Detector:
			 Type: Fixed Slits
		Tube: 
			 Type: Fixed Slits


Datas:
 Pos [deg]       Rate [CPS]      ESD [-]

Range 1 ---> Iteration 1
   3.000        380.83	    21.378
   3.020        345.00	    20.347
   3.040        345.83	    20.372
   3.060        340.83	    20.224
   3.080        355.83	    20.664
   3.100        329.17	    19.875
   3.120        335.00	    20.050
   3.140        325.00	    19.748
   3.160        332.50	    19.975
   3.180        337.50	    20.125
   3.200        337.50	    20.125
   3.220        317.50	    19.519
   3.240        335.00	    20.050
   3.260        325.83	    19.774
   3.280        332.50	    19.975
   3.300        312.50	    19.365
   3.320        330.83	    19.925
   3.340        310.00	    19.287
   3.360        302.50	    19.053
   3.380        312.50	    19.365
   3.400        300.83	    19.000
   3.420        337.50	    20.125
   3.440        312.50	    19.365
   3.460        270.00	    18.000
   3.480        311.67	    19.339
   3.500        318.33	    19.545
   3.520        285.83	    18.520
   3.540        295.83	    18.841
   3.560        296.67	    18.868
   3.580        254.17	    17.464
   3.600        285.00	    18.493
   3.620        250.00	    17.321
   3.640        255.00	    17.493
   3.660        288.33	    18.601
   3.680        283.33	    18.439
   3.700        250.83	    17.349
   3.720        280.83	    18.358
   3.740        263.33	    17.776
   3.760        260.83	    17.692
   3.780        260.00	    17.664
   3.800        288.33	    18.601
   3.820        248.33	    17.263
   3.840        246.67	    17.205
   3.860        245.00	    17.146
   3.880        235.83	    16.823
   3.900        241.67	    17.029
   3.920        255.83	    17.521
   3.940        245.00	    17.146
   3.960        246.67	    17.205
   3.980        255.00	    17.493
   4.000        242.50	    17.059
   4.020        222.50	    16.340
   4.040        208.33	    15.811
   4.060        250.83	    17.349
   4.080        242.50	    17.059
   4.100        215.83	    16.093
   4.120        223.33	    16.371
   4.140        242.50	    17.059
   4.160        235.00	    16.793
   4.180        255.83	    17.521
   4.200        239.17	    16.941
   4.220        241.67	    17.029
   4.240        237.50	    16.882
   4.260        204.17	    15.652
   4.280        226.67	    16.492
   4.300        212.50	    15.969
   4.320        229.17	    16.583
   4.340        216.67	    16.125
   4.360        200.00	    15.492
   4.380        195.00	    15.297
   4.400        220.00	    16.248
   4.420        225.00	    16.432
   4.440        184.17	    14.866
   4.460        215.83	    16.093
   4.480        216.67	    16.125
   4.500        188.33	    15.033
   4.520        178.33	    14.629
   4.540        215.83	    16.093
   4.560        179.17	    14.663
   4.580        209.17	    15.843
   4.600        205.83	    15.716
   4.620        185.00	    14.900
   4.640        212.50	    15.969
   4.660        183.33	    14.832
   4.680        204.17	    15.652
   4.700        175.00	    14.491
   4.720        195.00	    15.297
   4.740        189.17	    15.067
   4.760        198.33	    15.427
   4.780        171.67	    14.353
   4.800        195.00	    15.297
   4.820        220.00	    16.248
   4.840        175.83	    14.526
   4.860        170.00	    14.283
   4.880        166.67	    14.142
   4.900        179.17	    14.663
   4.920        188.33	    15.033
   4.940        179.17	    14.663
   4.960        175.00	    14.491
   4.980        187.50	    15.000
   5.000        172.50	    14.387
   5.020        189.17	    15.067
   5.040        175.83	    14.526
   5.060        151.67	    13.491
   5.080        180.00	    14.697
   5.100        181.67	    14.765
   5.120        180.00	    14.697
   5.140        152.50	    13.528
   5.160        175.00	    14.491
   5.180        160.00	    13.856
   5.200        171.67	    14.353
   5.220        153.33	    13.565
   5.240        175.83	    14.526
   5.260        155.00	    13.638
   5.280        182.50	    14.799
   5.300        191.67	    15.166
   5.320        160.83	    13.892
   5.340        175.00	    14.491
   5.360        203.33	    15.620
   5.380        158.33	    13.784
   5.400        161.67	    13.928
   5.420        166.67	    14.142
   5.440        160.83	    13.892
   5.460        161.67	    13.928
   5.480        170.83	    14.318
   5.500        158.33	    13.784
   5.520        175.00	    14.491
   5.540        193.33	    15.232
   5.560        166.67	    14.142
   5.580        153.33	    13.565
   5.600        163.33	    14.000
   5.620        179.17	    14.663
   5.640        179.17	    14.663
   5.660        155.83	    13.675
   5.680        171.67	    14.353
   5.700        159.17	    13.820
   5.720        184.17	    14.866
   5.740        170.00	    14.283
   5.760        184.17	    14.866
   5.780        150.00	    13.416
   5.800        170.00	    14.283
   5.820        184.17	    14.866
   5.840        185.83	    14.933
   5.860        187.50	    15.000
   5.880        208.33	    15.811
   5.900        210.83	    15.906
   5.920        197.50	    15.395
   5.940        202.50	    15.588
   5.960        186.67	    14.967
   5.980        205.00	    15.684
   6.000        215.00	    16.062
   6.020        195.83	    15.330
   6.040        209.17	    15.843
   6.060        217.50	    16.155
   6.080        219.17	    16.217
   6.100        232.50	    16.703
   6.120        262.50	    17.748
   6.140        270.83	    18.028
   6.160        270.83	    18.028
   6.180        294.17	    18.788
   6.200        263.33	    17.776
   6.220        236.67	    16.852
   6.240        265.83	    17.861
   6.260        245.83	    17.176
   6.280        240.00	    16.971
   6.300        266.67	    17.889
   6.320        265.83	    17.861
   6.340        249.17	    17.292
   6.360        289.17	    18.628
   6.380        310.00	    19.287
   6.400        295.00	    18.815
   6.420        238.33	    16.912
   6.440        235.83	    16.823
   6.460        202.50	    15.588
   6.480        233.33	    16.733
   6.500        183.33	    14.832
   6.520        201.67	    15.556
   6.540        159.17	    13.820
   6.560        170.00	    14.283
   6.580        177.50	    14.595
   6.600        184.17	    14.866
   6.620        174.17	    14.457
   6.640        180.00	    14.697
   6.660        159.17	    13.820
   6.680        180.00	    14.697
   6.700        170.00	    14.283
   6.720        196.67	    15.362
   6.740        150.00	    13.416
   6.760        182.50	    14.799
   6.780        160.83	    13.892
   6.800        189.17	    15.067
   6.820        170.00	    14.283
   6.840        157.50	    13.748
   6.860        154.17	    13.601
   6.880        159.17	    13.820
   6.900        160.00	    13.856
   6.920        166.67	    14.142
   6.940        168.33	    14.213
   6.960        167.50	    14.177
   6.980        177.50	    14.595
   7.000        180.00	    14.697
   7.020        156.67	    13.711
   7.040        156.67	    13.711
   7.060        167.50	    14.177
   7.080        172.50	    14.387
   7.100        151.67	    13.491
   7.120        154.17	    13.601
   7.140        150.83	    13.454
   7.160        161.67	    13.928
   7.180        119.17	    11.958
   7.200        151.67	    13.491
   7.220        154.17	    13.601
   7.240        128.33	    12.410
   7.260        138.33	    12.884
   7.280        167.50	    14.177
   7.300        170.83	    14.318
   7.320        153.33	    13.565
   7.340        160.00	    13.856
   7.360        151.67	    13.491
   7.380        153.33	    13.565
   7.400        160.83	    13.892
   7.420        162.50	    13.964
   7.440        125.00	    12.247
   7.460        148.33	    13.342
   7.480        142.50	    13.077
   7.500        159.17	    13.820
   7.520        156.67	    13.711
   7.540        150.00	    13.416
   7.560        155.83	    13.675
   7.580        148.33	    13.342
   7.600        142.50	    13.077
   7.620        138.33	    12.884
   7.640        161.67	    13.928
   7.660        145.83	    13.229
   7.680        144.17	    13.153
   7.700        157.50	    13.748
   7.720        128.33	    12.410
   7.740        152.50	    13.528
   7.760        147.50	    13.304
   7.780        155.00	    13.638
   7.800        176.67	    14.560
   7.820        161.67	    13.928
   7.840        150.00	    13.416
   7.860        127.50	    12.369
   7.880        147.50	    13.304
   7.900        170.00	    14.283
   7.920        160.00	    13.856
   7.940        153.33	    13.565
   7.960        155.83	    13.675
   7.980        158.33	    13.784
   8.000        137.50	    12.845
   8.020        150.00	    13.416
   8.040        157.50	    13.748
   8.060        160.83	    13.892
   8.080        143.33	    13.115
   8.100        169.17	    14.248
   8.120        175.00	    14.491
   8.140        161.67	    13.928
   8.160        187.50	    15.000
   8.180        184.17	    14.866
   8.200        180.00	    14.697
   8.220        195.83	    15.330
   8.240        198.33	    15.427
   8.260        203.33	    15.620
   8.280        210.83	    15.906
   8.300        237.50	    16.882
   8.320        225.00	    16.432
   8.340        230.83	    16.643
   8.360        278.33	    18.276
   8.380        296.67	    18.868
   8.400        316.67	    19.494
   8.420        304.17	    19.105
   8.440        353.33	    20.591
   8.460        393.33	    21.726
   8.480        375.83	    21.237
   8.500        391.67	    21.679
   8.520        352.50	    20.567
   8.540        345.00	    20.347
   8.560        251.67	    17.378
   8.580        229.17	    16.583
   8.600        198.33	    15.427
   8.620        212.50	    15.969
   8.640        209.17	    15.843
   8.660        210.00	    15.875
   8.680        218.33	    16.186
   8.700        240.00	    16.971
   8.720        244.17	    17.117
   8.740        244.17	    17.117
   8.760        259.17	    17.635
   8.780        260.00	    17.664
   8.800        299.17	    18.947
   8.820        290.83	    18.682
   8.840        275.83	    18.193
   8.860        335.83	    20.075
   8.880        333.33	    20.000
   8.900        357.50	    20.712
   8.920        425.83	    22.605
   8.940        506.67	    24.658
   8.960        534.17	    25.318
   8.980        681.67	    28.601
   9.000        723.33	    29.462
   9.020        734.17	    29.682
   9.040        738.33	    29.766
   9.060        602.50	    26.889
   9.080        435.00	    22.847
   9.100        318.33	    19.545
   9.120        246.67	    17.205
   9.140        181.67	    14.765
   9.160        175.00	    14.491
   9.180        161.67	    13.928
   9.200        158.33	    13.784
   9.220        160.00	    13.856
   9.240        160.83	    13.892
   9.260        148.33	    13.342
   9.280        133.33	    12.649
   9.300        155.83	    13.675
   9.320        167.50	    14.177
   9.340        147.50	    13.304
   9.360        140.83	    13.000
   9.380        121.67	    12.083
   9.400        113.33	    11.662
   9.420        128.33	    12.410
   9.440        126.67	    12.329
   9.460        111.67	    11.576
   9.480        125.00	    12.247
   9.500        115.00	    11.747
   9.520        121.67	    12.083
   9.540        107.50	    11.358
   9.560        130.83	    12.530
   9.580        118.33	    11.916
   9.600        120.00	    12.000
   9.620        113.33	    11.662
   9.640        124.17	    12.207
   9.660        103.33	    11.136
   9.680        101.67	    11.045
   9.700        100.83	    11.000
   9.720        109.17	    11.446
   9.740         96.67	    10.770
   9.760        116.67	    11.832
   9.780        105.83	    11.269
   9.800         89.17	    10.344
   9.820        115.83	    11.790
   9.840        110.00	    11.489
   9.860         95.83	    10.724
   9.880        104.17	    11.180
   9.900        110.00	    11.489
   9.920        106.67	    11.314
   9.940        107.50	    11.358
   9.960         90.00	    10.392
   9.980        108.33	    11.402
  10.000         96.67	    10.770
  10.020         89.17	    10.344
  10.040         89.17	    10.344
  10.060        102.50	    11.091
  10.080         81.67	     9.899
  10.100        110.00	    11.489
  10.120        100.00	    10.954
  10.140         88.33	    10.296
  10.160         99.17	    10.909
  10.180        117.50	    11.874
  10.200         80.00	     9.798
  10.220         95.00	    10.677
  10.240         84.17	    10.050
  10.260         84.17	    10.050
  10.280         93.33	    10.583
  10.300         79.17	     9.747
  10.320         84.17	    10.050
  10.340         86.67	    10.198
  10.360         86.67	    10.198
  10.380         92.50	    10.536
  10.400         86.67	    10.198
  10.420         91.67	    10.488
  10.440        103.33	    11.136
  10.460         90.83	    10.440
  10.480         76.67	     9.592
  10.500         97.50	    10.817
  10.520         85.00	    10.100
  10.540         99.17	    10.909
  10.560        110.00	    11.489
  10.580        122.50	    12.124
  10.600        125.83	    12.288
  10.620        150.83	    13.454
  10.640        132.50	    12.610
  10.660        143.33	    13.115
  10.680        110.83	    11.533
  10.700        117.50	    11.874
  10.720        111.67	    11.576
  10.740         97.50	    10.817
  10.760         93.33	    10.583
  10.780         81.67	     9.899
  10.800         80.00	     9.798
  10.820         73.33	     9.381
  10.840         93.33	    10.583
  10.860         75.83	     9.539
  10.880         81.67	     9.899
  10.900         77.50	     9.644
  10.920         93.33	    10.583
  10.940         95.83	    10.724
  10.960         69.17	     9.110
  10.980         80.00	     9.798
  11.000         80.00	     9.798
  11.020         60.00	     8.485
  11.040         86.67	    10.198
  11.060         66.67	     8.944
  11.080         75.00	     9.487
  11.100         77.50	     9.644
  11.120         91.67	    10.488
  11.140         78.33	     9.695
  11.160         65.83	     8.888
  11.180        104.17	    11.180
  11.200         75.00	     9.487
  11.220         70.00	     9.165
  11.240         75.00	     9.487
  11.260         71.67	     9.274
  11.280         76.67	     9.592
  11.300         73.33	     9.381
  11.320         73.33	     9.381
  11.340         81.67	     9.899
  11.360         73.33	     9.381
  11.380         73.33	     9.381
  11.400         79.17	     9.747
  11.420         82.50	     9.950
  11.440         72.50	     9.327
  11.460         72.50	     9.327
  11.480         77.50	     9.644
  11.500         76.67	     9.592
  11.520         70.83	     9.220
  11.540         74.17	     9.434
  11.560         88.33	    10.296
  11.580         83.33	    10.000
  11.600         70.83	     9.220
  11.620         87.50	    10.247
  11.640         78.33	     9.695
  11.660         68.33	     9.055
  11.680         87.50	    10.247
  11.700         88.33	    10.296
  11.720         56.67	     8.246
  11.740         74.17	     9.434
  11.760         75.83	     9.539
  11.780         71.67	     9.274
  11.800         82.50	     9.950
  11.820         84.17	    10.050
  11.840         71.67	     9.274
  11.860         85.83	    10.149
  11.880         69.17	     9.110
  11.900         65.00	     8.832
  11.920         82.50	     9.950
  11.940         76.67	     9.592
  11.960         84.17	    10.050
  11.980         72.50	     9.327
  12.000         81.67	     9.899
  12.020         80.00	     9.798
  12.040         91.67	    10.488
  12.060        100.00	    10.954
  12.080         84.17	    10.050
  12.100         89.17	    10.344
  12.120         92.50	    10.536
  12.140        105.00	    11.225
  12.160         89.17	    10.344
  12.180         87.50	    10.247
  12.200         90.00	    10.392
  12.220        127.50	    12.369
  12.240        140.83	    13.000
  12.260        165.00	    14.071
  12.280        181.67	    14.765
  12.300        214.17	    16.031
  12.320        268.33	    17.944
  12.340        335.83	    20.075
  12.360        351.67	    20.543
  12.380        297.50	    18.894
  12.400        253.33	    17.436
  12.420        191.67	    15.166
  12.440        181.67	    14.765
  12.460        203.33	    15.620
  12.480        203.33	    15.620
  12.500        226.67	    16.492
  12.520        245.00	    17.146
  12.540        265.83	    17.861
  12.560        335.83	    20.075
  12.580        368.33	    21.024
  12.600        454.17	    23.345
  12.620        519.17	    24.960
  12.640        599.17	    26.814
  12.660        584.17	    26.476
  12.680        498.33	    24.454
  12.700        328.33	    19.849
  12.720        242.50	    17.059
  12.740        181.67	    14.765
  12.760        124.17	    12.207
  12.780        129.17	    12.450
  12.800         90.00	    10.392
  12.820         94.17	    10.630
  12.840         85.00	    10.100
  12.860         87.50	    10.247
  12.880         90.83	    10.440
  12.900         85.00	    10.100
  12.920         77.50	     9.644
  12.940         66.67	     8.944
  12.960         75.83	     9.539
  12.980         87.50	    10.247
  13.000         75.00	     9.487
  13.020         73.33	     9.381
  13.040         87.50	    10.247
  13.060         69.17	     9.110
  13.080         62.50	     8.660
  13.100         65.00	     8.832
  13.120         50.83	     7.810
  13.140         68.33	     9.055
  13.160         69.17	     9.110
  13.180         68.33	     9.055
  13.200         65.00	     8.832
  13.220         66.67	     8.944
  13.240         53.33	     8.000
  13.260         64.17	     8.775
  13.280         70.83	     9.220
  13.300         63.33	     8.718
  13.320         65.83	     8.888
  13.340         61.67	     8.602
  13.360         65.00	     8.832
  13.380         70.00	     9.165
  13.400         47.50	     7.550
  13.420         61.67	     8.602
  13.440         68.33	     9.055
  13.460         49.17	     7.681
  13.480         66.67	     8.944
  13.500         53.33	     8.000
  13.520         69.17	     9.110
  13.540         60.83	     8.544
  13.560         54.17	     8.062
  13.580         66.67	     8.944
  13.600         60.00	     8.485
  13.620         65.00	     8.832
  13.640         55.00	     8.124
  13.660         61.67	     8.602
  13.680         53.33	     8.000
  13.700         54.17	     8.062
  13.720         50.83	     7.810
  13.740         55.83	     8.185
  13.760         55.00	     8.124
  13.780         80.83	     9.849
  13.800         51.67	     7.874
  13.820         62.50	     8.660
  13.840         64.17	     8.775
  13.860         54.17	     8.062
  13.880         59.17	     8.426
  13.900         72.50	     9.327
  13.920         65.83	     8.888
  13.940         78.33	     9.695
  13.960         82.50	     9.950
  13.980         95.83	    10.724
  14.000         83.33	    10.000
  14.020        103.33	    11.136
  14.040         98.33	    10.863
  14.060         75.83	     9.539
  14.080         66.67	     8.944
  14.100         63.33	     8.718
  14.120         67.50	     9.000
  14.140         55.83	     8.185
  14.160         73.33	     9.381
  14.180         66.67	     8.944
  14.200         61.67	     8.602
  14.220         56.67	     8.246
  14.240         64.17	     8.775
  14.260         60.83	     8.544
  14.280         46.67	     7.483
  14.300         52.50	     7.937
  14.320         45.83	     7.416
  14.340         41.67	     7.071
  14.360         56.67	     8.246
  14.380         55.00	     8.124
  14.400         67.50	     9.000
  14.420         51.67	     7.874
  14.440         55.83	     8.185
  14.460         56.67	     8.246
  14.480         54.17	     8.062
  14.500         55.00	     8.124
  14.520         45.83	     7.416
  14.540         53.33	     8.000
  14.560         48.33	     7.616
  14.580         56.67	     8.246
  14.600         57.50	     8.307
  14.620         46.67	     7.483
  14.640         55.00	     8.124
  14.660         55.00	     8.124
  14.680         58.33	     8.367
  14.700         49.17	     7.681
  14.720         48.33	     7.616
  14.740         58.33	     8.367
  14.760         53.33	     8.000
  14.780         54.17	     8.062
  14.800         55.83	     8.185
  14.820         54.17	     8.062
  14.840         43.33	     7.211
  14.860         36.67	     6.633
  14.880         51.67	     7.874
  14.900         52.50	     7.937
  14.920         63.33	     8.718
  14.940         45.83	     7.416
  14.960         61.67	     8.602
  14.980         57.50	     8.307
  15.000         40.00	     6.928
  15.020         44.17	     7.280
  15.040         46.67	     7.483
  15.060         59.17	     8.426
  15.080         54.17	     8.062
  15.100         55.00	     8.124
  15.120         62.50	     8.660
  15.140         63.33	     8.718
  15.160         65.83	     8.888
  15.180         47.50	     7.550
  15.200         55.00	     8.124
  15.220         51.67	     7.874
  15.240         51.67	     7.874
  15.260         50.00	     7.746
  15.280         32.50	     6.245
  15.300         60.83	     8.544
  15.320         55.83	     8.185
  15.340         58.33	     8.367
  15.360         50.00	     7.746
  15.380         45.83	     7.416
  15.400         46.67	     7.483
  15.420         54.17	     8.062
  15.440         52.50	     7.937
  15.460         54.17	     8.062
  15.480         56.67	     8.246
  15.500         41.67	     7.071
  15.520         40.83	     7.000
  15.540         35.83	     6.557
  15.560         38.33	     6.782
  15.580         40.00	     6.928
  15.600         50.83	     7.810
  15.620         45.00	     7.348
  15.640         45.83	     7.416
  15.660         41.67	     7.071
  15.680         43.33	     7.211
  15.700         45.83	     7.416
  15.720         47.50	     7.550
  15.740         40.83	     7.000
  15.760         32.50	     6.245
  15.780         45.83	     7.416
  15.800         49.17	     7.681
  15.820         51.67	     7.874
  15.840         38.33	     6.782
  15.860         42.50	     7.141
  15.880         43.33	     7.211
  15.900         42.50	     7.141
  15.920         52.50	     7.937
  15.940         58.33	     8.367
  15.960         50.00	     7.746
  15.980         50.00	     7.746
  16.000         51.67	     7.874
  16.020         52.50	     7.937
  16.040         48.33	     7.616
  16.060         49.17	     7.681
  16.080         45.00	     7.348
  16.100         44.17	     7.280
  16.120         50.00	     7.746
  16.140         48.33	     7.616
  16.160         39.17	     6.856
  16.180         55.00	     8.124
  16.200         38.33	     6.782
  16.220         45.83	     7.416
  16.240         45.83	     7.416
  16.260         44.17	     7.280
  16.280         49.17	     7.681
  16.300         40.00	     6.928
  16.320         37.50	     6.708
  16.340         41.67	     7.071
  16.360         40.83	     7.000
  16.380         51.67	     7.874
  16.400         38.33	     6.782
  16.420         40.83	     7.000
  16.440         50.00	     7.746
  16.460         35.00	     6.481
  16.480         48.33	     7.616
  16.500         52.50	     7.937
  16.520         38.33	     6.782
  16.540         37.50	     6.708
  16.560         52.50	     7.937
  16.580         43.33	     7.211
  16.600         57.50	     8.307
  16.620         45.00	     7.348
  16.640         50.00	     7.746
  16.660         52.50	     7.937
  16.680         35.83	     6.557
  16.700         44.17	     7.280
  16.720         37.50	     6.708
  16.740         39.17	     6.856
  16.760         45.00	     7.348
  16.780         48.33	     7.616
  16.800         37.50	     6.708
  16.820         49.17	     7.681
  16.840         45.83	     7.416
  16.860         44.17	     7.280
  16.880         42.50	     7.141
  16.900         40.83	     7.000
  16.920         45.00	     7.348
  16.940         55.00	     8.124
  16.960         47.50	     7.550
  16.980         38.33	     6.782
  17.000         41.67	     7.071
  17.020         45.00	     7.348
  17.040         52.50	     7.937
  17.060         45.00	     7.348
  17.080         47.50	     7.550
  17.100         35.00	     6.481
  17.120         43.33	     7.211
  17.140         45.83	     7.416
  17.160         52.50	     7.937
  17.180         50.00	     7.746
  17.200         50.83	     7.810
  17.220         63.33	     8.718
  17.240         37.50	     6.708
  17.260         40.83	     7.000
  17.280         33.33	     6.325
  17.300         52.50	     7.937
  17.320         40.83	     7.000
  17.340         45.00	     7.348
  17.360         44.17	     7.280
  17.380         42.50	     7.141
  17.400         47.50	     7.550
  17.420         35.83	     6.557
  17.440         34.17	     6.403
  17.460         54.17	     8.062
  17.480         55.00	     8.124
  17.500         52.50	     7.937
  17.520         51.67	     7.874
  17.540         39.17	     6.856
  17.560         60.00	     8.485
  17.580         70.83	     9.220
  17.600         58.33	     8.367
  17.620         50.00	     7.746
  17.640         56.67	     8.246
  17.660         51.67	     7.874
  17.680         55.83	     8.185
  17.700         74.17	     9.434
  17.720         58.33	     8.367
  17.740         70.00	     9.165
  17.760         74.17	     9.434
  17.780         95.83	    10.724
  17.800         86.67	    10.198
  17.820        127.50	    12.369
  17.840        130.00	    12.490
  17.860        187.50	    15.000
  17.880        206.67	    15.748
  17.900        245.00	    17.146
  17.920        274.17	    18.138
  17.940        306.67	    19.183
  17.960        324.17	    19.723
  17.980        307.50	    19.209
  18.000        250.00	    17.321
  18.020        217.50	    16.155
  18.040        143.33	    13.115
  18.060        108.33	    11.402
  18.080        106.67	    11.314
  18.100         72.50	     9.327
  18.120         70.00	     9.165
  18.140         75.83	     9.539
  18.160         54.17	     8.062
  18.180         61.67	     8.602
  18.200         64.17	     8.775
  18.220         53.33	     8.000
  18.240         60.83	     8.544
  18.260         56.67	     8.246
  18.280         45.83	     7.416
  18.300         66.67	     8.944
  18.320         44.17	     7.280
  18.340         50.00	     7.746
  18.360         60.83	     8.544
  18.380         42.50	     7.141
  18.400         51.67	     7.874
  18.420         45.83	     7.416
  18.440         50.00	     7.746
  18.460         60.83	     8.544
  18.480         54.17	     8.062
  18.500         60.00	     8.485
  18.520         57.50	     8.307
  18.540         60.83	     8.544
  18.560         76.67	     9.592
  18.580         77.50	     9.644
  18.600         56.67	     8.246
  18.620         66.67	     8.944
  18.640         68.33	     9.055
  18.660         56.67	     8.246
  18.680         74.17	     9.434
  18.700         80.00	     9.798
  18.720         89.17	    10.344
  18.740         84.17	    10.050
  18.760         72.50	     9.327
  18.780         76.67	     9.592
  18.800        105.00	    11.225
  18.820        122.50	    12.124
  18.840        117.50	    11.874
  18.860        143.33	    13.115
  18.880        167.50	    14.177
  18.900        196.67	    15.362
  18.920        231.67	    16.673
  18.940        218.33	    16.186
  18.960        229.17	    16.583
  18.980        188.33	    15.033
  19.000        154.17	    13.601
  19.020        139.17	    12.923
  19.040         88.33	    10.296
  19.060         80.00	     9.798
  19.080         67.50	     9.000
  19.100         62.50	     8.660
  19.120         56.67	     8.246
  19.140         55.83	     8.185
  19.160         60.00	     8.485
  19.180         61.67	     8.602
  19.200         49.17	     7.681
  19.220         61.67	     8.602
  19.240         61.67	     8.602
  19.260         60.83	     8.544
  19.280         70.00	     9.165
  19.300         65.00	     8.832
  19.320         66.67	     8.944
  19.340         66.67	     8.944
  19.360         67.50	     9.000
  19.380         70.00	     9.165
  19.400         61.67	     8.602
  19.420         62.50	     8.660
  19.440         71.67	     9.274
  19.460         66.67	     8.944
  19.480         71.67	     9.274
  19.500         50.00	     7.746
  19.520         59.17	     8.426
  19.540         59.17	     8.426
  19.560         70.00	     9.165
  19.580         73.33	     9.381
  19.600         49.17	     7.681
  19.620         45.83	     7.416
  19.640         65.83	     8.888
  19.660         53.33	     8.000
  19.680         49.17	     7.681
  19.700         49.17	     7.681
  19.720         68.33	     9.055
  19.740         75.00	     9.487
  19.760         65.83	     8.888
  19.780         80.83	     9.849
  19.800         86.67	    10.198
  19.820         78.33	     9.695
  19.840         90.83	    10.440
  19.860        110.83	    11.533
  19.880        107.50	    11.358
  19.900        100.00	    10.954
  19.920        118.33	    11.916
  19.940        147.50	    13.304
  19.960        126.67	    12.329
  19.980        125.83	    12.288
  20.000        140.00	    12.961
  20.020        130.00	    12.490
  20.040        111.67	    11.576
  20.060        105.00	    11.225
  20.080        100.83	    11.000
  20.100         81.67	     9.899
  20.120         76.67	     9.592
  20.140         82.50	     9.950
  20.160         58.33	     8.367
  20.180         65.00	     8.832
  20.200         72.50	     9.327
  20.220         67.50	     9.000
  20.240         64.17	     8.775
  20.260         66.67	     8.944
  20.280         56.67	     8.246
  20.300         51.67	     7.874
  20.320         55.00	     8.124
  20.340         53.33	     8.000
  20.360         60.00	     8.485
  20.380         57.50	     8.307
  20.400         53.33	     8.000
  20.420         58.33	     8.367
  20.440         49.17	     7.681
  20.460         65.00	     8.832
  20.480         57.50	     8.307
  20.500         60.83	     8.544
  20.520         39.17	     6.856
  20.540         58.33	     8.367
  20.560         37.50	     6.708
  20.580         57.50	     8.307
  20.600         47.50	     7.550
  20.620         64.17	     8.775
  20.640         58.33	     8.367
  20.660         53.33	     8.000
  20.680         58.33	     8.367
  20.700         64.17	     8.775
  20.720         53.33	     8.000
  20.740         75.83	     9.539
  20.760         52.50	     7.937
  20.780         68.33	     9.055
  20.800         55.83	     8.185
  20.820         74.17	     9.434
  20.840         71.67	     9.274
  20.860         72.50	     9.327
  20.880         98.33	    10.863
  20.900         96.67	    10.770
  20.920        140.00	    12.961
  20.940        180.00	    14.697
  20.960        225.83	    16.462
  20.980        258.33	    17.607
  21.000        290.83	    18.682
  21.020        277.50	    18.248
  21.040        206.67	    15.748
  21.060        160.83	    13.892
  21.080        135.00	    12.728
  21.100        115.00	    11.747
  21.120        100.83	    11.000
  21.140        112.50	    11.619
  21.160        105.00	    11.225
  21.180         94.17	    10.630
  21.200         88.33	    10.296
  21.220         79.17	     9.747
  21.240         76.67	     9.592
  21.260         67.50	     9.000
  21.280         55.00	     8.124
  21.300         61.67	     8.602
  21.320         49.17	     7.681
  21.340         66.67	     8.944
  21.360         65.83	     8.888
  21.380         48.33	     7.616
  21.400         52.50	     7.937
  21.420         61.67	     8.602
  21.440         44.17	     7.280
  21.460         59.17	     8.426
  21.480         50.00	     7.746
  21.500         47.50	     7.550
  21.520         57.50	     8.307
  21.540         47.50	     7.550
  21.560         45.83	     7.416
  21.580         52.50	     7.937
  21.600         67.50	     9.000
  21.620         57.50	     8.307
  21.640         55.00	     8.124
  21.660         62.50	     8.660
  21.680         56.67	     8.246
  21.700         63.33	     8.718
  21.720         57.50	     8.307
  21.740         54.17	     8.062
  21.760         58.33	     8.367
  21.780         65.00	     8.832
  21.800         72.50	     9.327
  21.820         58.33	     8.367
  21.840         54.17	     8.062
  21.860         58.33	     8.367
  21.880         51.67	     7.874
  21.900         44.17	     7.280
  21.920         55.83	     8.185
  21.940         40.00	     6.928
  21.960         55.00	     8.124
  21.980         57.50	     8.307
  22.000         60.00	     8.485
  22.020         75.83	     9.539
  22.040         91.67	    10.488
  22.060         75.83	     9.539
  22.080        100.00	    10.954
  22.100        140.00	    12.961
  22.120        171.67	    14.353
  22.140        200.83	    15.524
  22.160        248.33	    17.263
  22.180        290.00	    18.655
  22.200        290.83	    18.682
  22.220        245.00	    17.146
  22.240        184.17	    14.866
  22.260        155.00	    13.638
  22.280        100.00	    10.954
  22.300         78.33	     9.695
  22.320         67.50	     9.000
  22.340         63.33	     8.718
  22.360         65.00	     8.832
  22.380         55.83	     8.185
  22.400         73.33	     9.381
  22.420         80.00	     9.798
  22.440         75.00	     9.487
  22.460         61.67	     8.602
  22.480         57.50	     8.307
  22.500         56.67	     8.246
  22.520         52.50	     7.937
  22.540         63.33	     8.718
  22.560         66.67	     8.944
  22.580         60.83	     8.544
  22.600         83.33	    10.000
  22.620         70.83	     9.220
  22.640         55.83	     8.185
  22.660         50.83	     7.810
  22.680         62.50	     8.660
  22.700         55.83	     8.185
  22.720         57.50	     8.307
  22.740         42.50	     7.141
  22.760         55.83	     8.185
  22.780         56.67	     8.246
  22.800         50.83	     7.810
  22.820         49.17	     7.681
  22.840         55.00	     8.124
  22.860         46.67	     7.483
  22.880         72.50	     9.327
  22.900         72.50	     9.327
  22.920         74.17	     9.434
  22.940         71.67	     9.274
  22.960         83.33	    10.000
  22.980        102.50	    11.091
  23.000        126.67	    12.329
  23.020        105.00	    11.225
  23.040        123.33	    12.166
  23.060        119.17	    11.958
  23.080        143.33	    13.115
  23.100        117.50	    11.874
  23.120        110.00	    11.489
  23.140        129.17	    12.450
  23.160        114.17	    11.705
  23.180        128.33	    12.410
  23.200        117.50	    11.874
  23.220        115.83	    11.790
  23.240         96.67	    10.770
  23.260         73.33	     9.381
  23.280         70.83	     9.220
  23.300         65.00	     8.832
  23.320         69.17	     9.110
  23.340         63.33	     8.718
  23.360         45.00	     7.348
  23.380         56.67	     8.246
  23.400         75.00	     9.487
  23.420         53.33	     8.000
  23.440         72.50	     9.327
  23.460         70.00	     9.165
  23.480         54.17	     8.062
  23.500         57.50	     8.307
  23.520         68.33	     9.055
  23.540         68.33	     9.055
  23.560         70.00	     9.165
  23.580         82.50	     9.950
  23.600        107.50	    11.358
  23.620        122.50	    12.124
  23.640        148.33	    13.342
  23.660        177.50	    14.595
  23.680        192.50	    15.199
  23.700        194.17	    15.264
  23.720        198.33	    15.427
  23.740        165.00	    14.071
  23.760        179.17	    14.663
  23.780        138.33	    12.884
  23.800        147.50	    13.304
  23.820        117.50	    11.874
  23.840        108.33	    11.402
  23.860         92.50	    10.536
  23.880        110.00	    11.489
  23.900        120.83	    12.042
  23.920         88.33	    10.296
  23.940        131.67	    12.570
  23.960        117.50	    11.874
  23.980        111.67	    11.576
  24.000        115.00	    11.747
  24.020         97.50	    10.817
  24.040         90.83	    10.440
  24.060         98.33	    10.863
  24.080         74.17	     9.434
  24.100         88.33	    10.296
  24.120         83.33	    10.000
  24.140         78.33	     9.695
  24.160         96.67	    10.770
  24.180         92.50	    10.536
  24.200         92.50	    10.536
  24.220         81.67	     9.899
  24.240        103.33	    11.136
  24.260        106.67	    11.314
  24.280        135.83	    12.767
  24.300        135.83	    12.767
  24.320        142.50	    13.077
  24.340        142.50	    13.077
  24.360        147.50	    13.304
  24.380        178.33	    14.629
  24.400        179.17	    14.663
  24.420        184.17	    14.866
  24.440        178.33	    14.629
  24.460        162.50	    13.964
  24.480        145.83	    13.229
  24.500        130.83	    12.530
  24.520        116.67	    11.832
  24.540        122.50	    12.124
  24.560         91.67	    10.488
  24.580         89.17	    10.344
  24.600         89.17	    10.344
  24.620         86.67	    10.198
  24.640        110.83	    11.533
  24.660        115.83	    11.790
  24.680        124.17	    12.207
  24.700        156.67	    13.711
  24.720        180.83	    14.731
  24.740        204.17	    15.652
  24.760        237.50	    16.882
  24.780        220.83	    16.279
  24.800        251.67	    17.378
  24.820        241.67	    17.029
  24.840        230.00	    16.613
  24.860        232.50	    16.703
  24.880        195.00	    15.297
  24.900        175.00	    14.491
  24.920        174.17	    14.457
  24.940        159.17	    13.820
  24.960        129.17	    12.450
  24.980        125.83	    12.288
  25.000        125.83	    12.288
  25.020        135.83	    12.767
  25.040        110.83	    11.533
  25.060        122.50	    12.124
  25.080        145.00	    13.191
  25.100        146.67	    13.266
  25.120        130.00	    12.490
  25.140        162.50	    13.964
  25.160        177.50	    14.595
  25.180        201.67	    15.556
  25.200        212.50	    15.969
  25.220        270.00	    18.000
  25.240        321.67	    19.647
  25.260        388.33	    21.587
  25.280        455.83	    23.388
  25.300        465.83	    23.643
  25.320        438.33	    22.935
  25.340        450.83	    23.259
  25.360        340.83	    20.224
  25.380        275.00	    18.166
  25.400        233.33	    16.733
  25.420        173.33	    14.422
  25.440        152.50	    13.528
  25.460        147.50	    13.304
  25.480        172.50	    14.387
  25.500        163.33	    14.000
  25.520        162.50	    13.964
  25.540        189.17	    15.067
  25.560        204.17	    15.652
  25.580        193.33	    15.232
  25.600        212.50	    15.969
  25.620        210.83	    15.906
  25.640        199.17	    15.460
  25.660        200.83	    15.524
  25.680        230.00	    16.613
  25.700        206.67	    15.748
  25.720        193.33	    15.232
  25.740        190.83	    15.133
  25.760        155.83	    13.675
  25.780        164.17	    14.036
  25.800        173.33	    14.422
  25.820        136.67	    12.806
  25.840        133.33	    12.649
  25.860        114.17	    11.705
  25.880        105.83	    11.269
  25.900        105.00	    11.225
  25.920         97.50	    10.817
  25.940        107.50	    11.358
  25.960         95.00	    10.677
  25.980         84.17	    10.050
  26.000         84.17	    10.050
  26.020         90.83	    10.440
  26.040         91.67	    10.488
  26.060        100.83	    11.000
  26.080         87.50	    10.247
  26.100         90.00	    10.392
  26.120         96.67	    10.770
  26.140         88.33	    10.296
  26.160         91.67	    10.488
  26.180         98.33	    10.863
  26.200        102.50	    11.091
  26.220        101.67	    11.045
  26.240        120.83	    12.042
  26.260         96.67	    10.770
  26.280        126.67	    12.329
  26.300        124.17	    12.207
  26.320        109.17	    11.446
  26.340        130.83	    12.530
  26.360        127.50	    12.369
  26.380        130.00	    12.490
  26.400        156.67	    13.711
  26.420        155.83	    13.675
  26.440        172.50	    14.387
  26.460        183.33	    14.832
  26.480        179.17	    14.663
  26.500        207.50	    15.780
  26.520        225.83	    16.462
  26.540        254.17	    17.464
  26.560        255.00	    17.493
  26.580        231.67	    16.673
  26.600        277.50	    18.248
  26.620        257.50	    17.578
  26.640        326.67	    19.799
  26.660        358.33	    20.736
  26.680        425.00	    22.583
  26.700        569.17	    26.134
  26.720        718.33	    29.360
  26.740       1071.67	    35.861
  26.760       1399.17	    40.976
  26.780       1468.33	    41.976
  26.800       1289.17	    39.332
  26.820       1091.67	    36.194
  26.840       1049.17	    35.482
  26.860        881.67	    32.527
  26.880        721.67	    29.428
  26.900        641.67	    27.749
  26.920        656.67	    28.071
  26.940        705.00	    29.086
  26.960        749.17	    29.983
  26.980        846.67	    31.875
  27.000        815.00	    31.273
  27.020        800.00	    30.984
  27.040        759.17	    30.183
  27.060        661.67	    28.178
  27.080        559.17	    25.904
  27.100        432.50	    22.782
  27.120        328.33	    19.849
  27.140        310.83	    19.313
  27.160        222.50	    16.340
  27.180        218.33	    16.186
  27.200        182.50	    14.799
  27.220        199.17	    15.460
  27.240        198.33	    15.427
  27.260        180.00	    14.697
  27.280        146.67	    13.266
  27.300        141.67	    13.038
  27.320        126.67	    12.329
  27.340        115.83	    11.790
  27.360        120.83	    12.042
  27.380        110.00	    11.489
  27.400        108.33	    11.402
  27.420        113.33	    11.662
  27.440        105.83	    11.269
  27.460        115.00	    11.747
  27.480         95.83	    10.724
  27.500         87.50	    10.247
  27.520        106.67	    11.314
  27.540         97.50	    10.817
  27.560        111.67	    11.576
  27.580        135.83	    12.767
  27.600        131.67	    12.570
  27.620        176.67	    14.560
  27.640        186.67	    14.967
  27.660        177.50	    14.595
  27.680        192.50	    15.199
  27.700        143.33	    13.115
  27.720        158.33	    13.784
  27.740        134.17	    12.689
  27.760        145.00	    13.191
  27.780        147.50	    13.304
  27.800        138.33	    12.884
  27.820        220.00	    16.248
  27.840        245.83	    17.176
  27.860        271.67	    18.055
  27.880        316.67	    19.494
  27.900        339.17	    20.174
  27.920        368.33	    21.024
  27.940        336.67	    20.100
  27.960        349.17	    20.469
  27.980        398.33	    21.863
  28.000        462.50	    23.558
  28.020        494.17	    24.352
  28.040        590.00	    26.608
  28.060        532.50	    25.278
  28.080        554.17	    25.788
  28.100        605.83	    26.963
  28.120        541.67	    25.495
  28.140        440.00	    22.978
  28.160        353.33	    20.591
  28.180        318.33	    19.545
  28.200        245.00	    17.146
  28.220        250.83	    17.349
  28.240        218.33	    16.186
  28.260        196.67	    15.362
  28.280        190.00	    15.100
  28.300        185.00	    14.900
  28.320        136.67	    12.806
  28.340        158.33	    13.784
  28.360        149.17	    13.379
  28.380        115.00	    11.747
  28.400        136.67	    12.806
  28.420        154.17	    13.601
  28.440        126.67	    12.329
  28.460        159.17	    13.820
  28.480        120.83	    12.042
  28.500        120.83	    12.042
  28.520        111.67	    11.576
  28.540        101.67	    11.045
  28.560         91.67	    10.488
  28.580         90.00	    10.392
  28.600         90.83	    10.440
  28.620        114.17	    11.705
  28.640        111.67	    11.576
  28.660        125.00	    12.247
  28.680        110.83	    11.533
  28.700        143.33	    13.115
  28.720        141.67	    13.038
  28.740        147.50	    13.304
  28.760        138.33	    12.884
  28.780        144.17	    13.153
  28.800        125.83	    12.288
  28.820        133.33	    12.649
  28.840        110.83	    11.533
  28.860        114.17	    11.705
  28.880        121.67	    12.083
  28.900        100.83	    11.000
  28.920        118.33	    11.916
  28.940        101.67	    11.045
  28.960        104.17	    11.180
  28.980         93.33	    10.583
  29.000        100.83	    11.000
  29.020         97.50	    10.817
  29.040         72.50	     9.327
  29.060         75.00	     9.487
  29.080         82.50	     9.950
  29.100         73.33	     9.381
  29.120         54.17	     8.062
  29.140         54.17	     8.062
  29.160         58.33	     8.367
  29.180         49.17	     7.681
  29.200         70.83	     9.220
  29.220         57.50	     8.307
  29.240         50.00	     7.746
  29.260         65.00	     8.832
  29.280         65.83	     8.888
  29.300         52.50	     7.937
  29.320         55.83	     8.185
  29.340         45.83	     7.416
  29.360         73.33	     9.381
  29.380         56.67	     8.246
  29.400         51.67	     7.874
  29.420         67.50	     9.000
  29.440         57.50	     8.307
  29.460         73.33	     9.381
  29.480         51.67	     7.874
  29.500         54.17	     8.062
  29.520         57.50	     8.307
  29.540         56.67	     8.246
  29.560         49.17	     7.681
  29.580         61.67	     8.602
  29.600         56.67	     8.246
  29.620         45.83	     7.416
  29.640         56.67	     8.246
  29.660         63.33	     8.718
  29.680         52.50	     7.937
  29.700         69.17	     9.110
  29.720         59.17	     8.426
  29.740         65.83	     8.888
  29.760         75.00	     9.487
  29.780         72.50	     9.327
  29.800         65.83	     8.888
  29.820         67.50	     9.000
  29.840         71.67	     9.274
  29.860         81.67	     9.899
  29.880        100.00	    10.954
  29.900        129.17	    12.450
  29.920        129.17	    12.450
  29.940        155.00	    13.638
  29.960        150.83	    13.454
  29.980        181.67	    14.765
  30.000        210.83	    15.906
  30.020        247.50	    17.234
  30.040        220.83	    16.279
  30.060        232.50	    16.703
  30.080        218.33	    16.186
  30.100        177.50	    14.595
  30.120        166.67	    14.142
  30.140        155.00	    13.638
  30.160        133.33	    12.649
  30.180        127.50	    12.369
  30.200        136.67	    12.806
  30.220        110.83	    11.533
  30.240        126.67	    12.329
  30.260        130.00	    12.490
  30.280        115.00	    11.747
  30.300        111.67	    11.576
  30.320        140.83	    13.000
  30.340        116.67	    11.832
  30.360        123.33	    12.166
  30.380        123.33	    12.166
  30.400        110.83	    11.533
  30.420         90.00	    10.392
  30.440        108.33	    11.402
  30.460        104.17	    11.180
  30.480        114.17	    11.705
  30.500        105.83	    11.269
  30.520        124.17	    12.207
  30.540        113.33	    11.662
  30.560        137.50	    12.845
  30.580        136.67	    12.806
  30.600        214.17	    16.031
  30.620        350.00	    20.494
  30.640        370.00	    21.071
  30.660        295.83	    18.841
  30.680        194.17	    15.264
  30.700        232.50	    16.703
  30.720        213.33	    16.000
  30.740        174.17	    14.457
  30.760        110.83	    11.533
  30.780         92.50	    10.536
  30.800         86.67	    10.198
  30.820         82.50	     9.950
  30.840         69.17	     9.110
  30.860         61.67	     8.602
  30.880         81.67	     9.899
  30.900         75.83	     9.539
  30.920        105.00	    11.225
  30.940         81.67	     9.899
  30.960        118.33	    11.916
  30.980        102.50	    11.091
  31.000        116.67	    11.832
  31.020        100.83	    11.000
  31.040         90.00	    10.392
  31.060         93.33	    10.583
  31.080        101.67	    11.045
  31.100         89.17	    10.344
  31.120         85.83	    10.149
  31.140         90.00	    10.392
  31.160         87.50	    10.247
  31.180        132.50	    12.610
  31.200        112.50	    11.619
  31.220        110.83	    11.533
  31.240        128.33	    12.410
  31.260        140.00	    12.961
  31.280        142.50	    13.077
  31.300        114.17	    11.705
  31.320        136.67	    12.806
  31.340        166.67	    14.142
  31.360        186.67	    14.967
  31.380        200.83	    15.524
  31.400        203.33	    15.620
  31.420        184.17	    14.866
  31.440        164.17	    14.036
  31.460        158.33	    13.784
  31.480        130.00	    12.490
  31.500        141.67	    13.038
  31.520        120.00	    12.000
  31.540        114.17	    11.705
  31.560        109.17	    11.446
  31.580         98.33	    10.863
  31.600         95.00	    10.677
  31.620        105.83	    11.269
  31.640         80.00	     9.798
  31.660        124.17	    12.207
  31.680        106.67	    11.314
  31.700        117.50	    11.874
  31.720        136.67	    12.806
  31.740        132.50	    12.610
  31.760        111.67	    11.576
  31.780        118.33	    11.916
  31.800         91.67	    10.488
  31.820         96.67	    10.770
  31.840         85.00	    10.100
  31.860         73.33	     9.381
  31.880         80.00	     9.798
  31.900         72.50	     9.327
  31.920         70.83	     9.220
  31.940         65.83	     8.888
  31.960         66.67	     8.944
  31.980         84.17	    10.050
  32.000         66.67	     8.944
  32.020         68.33	     9.055
  32.040         82.50	     9.950
  32.060         71.67	     9.274
  32.080         87.50	    10.247
  32.100         85.00	    10.100
  32.120        102.50	    11.091
  32.140        107.50	    11.358
  32.160        118.33	    11.916
  32.180        111.67	    11.576
  32.200        142.50	    13.077
  32.220        120.83	    12.042
  32.240        132.50	    12.610
  32.260        130.00	    12.490
  32.280        112.50	    11.619
  32.300        110.83	    11.533
  32.320        104.17	    11.180
  32.340        101.67	    11.045
  32.360        100.83	    11.000
  32.380         78.33	     9.695
  32.400         65.83	     8.888
  32.420         49.17	     7.681
  32.440         69.17	     9.110
  32.460         46.67	     7.483
  32.480         55.00	     8.124
  32.500         55.00	     8.124
  32.520         50.00	     7.746
  32.540         56.67	     8.246
  32.560         42.50	     7.141
  32.580         57.50	     8.307
  32.600         50.83	     7.810
  32.620         52.50	     7.937
  32.640         58.33	     8.367
  32.660         66.67	     8.944
  32.680         51.67	     7.874
  32.700         66.67	     8.944
  32.720         54.17	     8.062
  32.740         52.50	     7.937
  32.760         55.83	     8.185
  32.780         51.67	     7.874
  32.800         39.17	     6.856
  32.820         40.00	     6.928
  32.840         39.17	     6.856
  32.860         58.33	     8.367
  32.880         39.17	     6.856
  32.900         50.00	     7.746
  32.920         62.50	     8.660
  32.940         50.83	     7.810
  32.960         58.33	     8.367
  32.980         50.00	     7.746
  33.000         45.00	     7.348
  33.020         47.50	     7.550
  33.040         41.67	     7.071
  33.060         55.83	     8.185
  33.080         56.67	     8.246
  33.100         59.17	     8.426
  33.120         61.67	     8.602
  33.140         60.00	     8.485
  33.160         64.17	     8.775
  33.180         79.17	     9.747
  33.200         68.33	     9.055
  33.220         70.00	     9.165
  33.240         59.17	     8.426
  33.260         82.50	     9.950
  33.280         60.00	     8.485
  33.300         46.67	     7.483
  33.320         55.00	     8.124
  33.340         45.83	     7.416
  33.360         39.17	     6.856
  33.380         53.33	     8.000
  33.400         48.33	     7.616
  33.420         49.17	     7.681
  33.440         43.33	     7.211
  33.460         65.83	     8.888
  33.480         53.33	     8.000
  33.500         55.83	     8.185
  33.520         56.67	     8.246
  33.540         54.17	     8.062
  33.560         64.17	     8.775
  33.580         64.17	     8.775
  33.600         68.33	     9.055
  33.620         46.67	     7.483
  33.640         61.67	     8.602
  33.660         64.17	     8.775
  33.680         57.50	     8.307
  33.700         63.33	     8.718
  33.720         48.33	     7.616
  33.740         60.00	     8.485
  33.760         57.50	     8.307
  33.780         60.83	     8.544
  33.800         43.33	     7.211
  33.820         54.17	     8.062
  33.840         56.67	     8.246
  33.860         51.67	     7.874
  33.880         48.33	     7.616
  33.900         70.00	     9.165
  33.920         56.67	     8.246
  33.940         53.33	     8.000
  33.960         60.00	     8.485
  33.980         78.33	     9.695
  34.000         54.17	     8.062
  34.020         71.67	     9.274
  34.040         82.50	     9.950
  34.060         76.67	     9.592
  34.080         78.33	     9.695
  34.100         85.00	    10.100
  34.120         89.17	    10.344
  34.140         77.50	     9.644
  34.160        111.67	    11.576
  34.180         89.17	    10.344
  34.200         76.67	     9.592
  34.220         80.00	     9.798
  34.240         80.83	     9.849
  34.260         97.50	    10.817
  34.280         76.67	     9.592
  34.300         70.00	     9.165
  34.320         63.33	     8.718
  34.340         72.50	     9.327
  34.360         61.67	     8.602
  34.380         57.50	     8.307
  34.400         59.17	     8.426
  34.420         68.33	     9.055
  34.440         64.17	     8.775
  34.460         69.17	     9.110
  34.480         80.83	     9.849
  34.500         84.17	    10.050
  34.520         98.33	    10.863
  34.540         95.83	    10.724
  34.560        118.33	    11.916
  34.580        123.33	    12.166
  34.600        130.00	    12.490
  34.620        121.67	    12.083
  34.640        157.50	    13.748
  34.660        138.33	    12.884
  34.680        150.00	    13.416
  34.700        130.00	    12.490
  34.720        129.17	    12.450
  34.740        136.67	    12.806
  34.760        131.67	    12.570
  34.780        115.83	    11.790
  34.800        101.67	    11.045
  34.820        101.67	    11.045
  34.840         85.83	    10.149
  34.860         77.50	     9.644
  34.880         95.00	    10.677
  34.900         89.17	    10.344
  34.920        104.17	    11.180
  34.940        112.50	    11.619
  34.960        124.17	    12.207
  34.980        119.17	    11.958
  35.000        150.83	    13.454
  35.020        171.67	    14.353
  35.040        163.33	    14.000
  35.060        177.50	    14.595
  35.080        174.17	    14.457
  35.100        175.83	    14.526
  35.120        188.33	    15.033
  35.140        190.00	    15.100
  35.160        188.33	    15.033
  35.180        164.17	    14.036
  35.200        150.83	    13.454
  35.220        139.17	    12.923
  35.240        145.00	    13.191
  35.260        111.67	    11.576
  35.280        121.67	    12.083
  35.300        110.00	    11.489
  35.320        101.67	    11.045
  35.340        107.50	    11.358
  35.360         80.83	     9.849
  35.380         90.83	    10.440
  35.400         94.17	    10.630
  35.420         87.50	    10.247
  35.440         70.83	     9.220
  35.460         82.50	     9.950
  35.480         86.67	    10.198
  35.500         80.83	     9.849
  35.520         99.17	    10.909
  35.540        111.67	    11.576
  35.560         97.50	    10.817
  35.580        113.33	    11.662
  35.600        105.00	    11.225
  35.620         96.67	    10.770
  35.640         96.67	    10.770
  35.660         88.33	    10.296
  35.680         81.67	     9.899
  35.700         83.33	    10.000
  35.720         93.33	    10.583
  35.740         77.50	     9.644
  35.760         79.17	     9.747
  35.780         96.67	    10.770
  35.800         80.00	     9.798
  35.820         68.33	     9.055
  35.840         81.67	     9.899
  35.860         73.33	     9.381
  35.880         78.33	     9.695
  35.900         55.00	     8.124
  35.920         73.33	     9.381
  35.940         90.00	    10.392
  35.960         63.33	     8.718
  35.980         63.33	     8.718
  36.000         70.00	     9.165
  36.020         75.83	     9.539
  36.040         63.33	     8.718
  36.060         70.00	     9.165
  36.080         85.83	    10.149
  36.100         88.33	    10.296
  36.120         87.50	    10.247
  36.140         83.33	    10.000
  36.160        106.67	    11.314
  36.180         90.83	    10.440
  36.200        105.00	    11.225
  36.220        109.17	    11.446
  36.240        107.50	    11.358
  36.260        100.83	    11.000
  36.280        100.83	    11.000
  36.300         88.33	    10.296
  36.320         75.00	     9.487
  36.340         71.67	     9.274
  36.360         74.17	     9.434
  36.380         76.67	     9.592
  36.400         60.00	     8.485
  36.420         62.50	     8.660
  36.440         60.00	     8.485
  36.460         70.83	     9.220
  36.480         66.67	     8.944
  36.500         60.83	     8.544
  36.520         55.83	     8.185
  36.540         78.33	     9.695
  36.560         78.33	     9.695
  36.580         89.17	    10.344
  36.600         98.33	    10.863
  36.620        105.83	    11.269
  36.640        125.83	    12.288
  36.660        177.50	    14.595
  36.680        164.17	    14.036
  36.700        169.17	    14.248
  36.720        137.50	    12.845
  36.740        125.83	    12.288
  36.760        147.50	    13.304
  36.780        140.00	    12.961
  36.800        145.00	    13.191
  36.820        133.33	    12.649
  36.840        114.17	    11.705
  36.860        100.00	    10.954
  36.880        103.33	    11.136
  36.900        115.83	    11.790
  36.920         82.50	     9.950
  36.940         95.00	    10.677
  36.960         99.17	    10.909
  36.980         91.67	    10.488
  37.000         78.33	     9.695
  37.020         77.50	     9.644
  37.040         69.17	     9.110
  37.060         85.00	    10.100
  37.080         58.33	     8.367
  37.100         64.17	     8.775
  37.120         70.83	     9.220
  37.140         63.33	     8.718
  37.160         74.17	     9.434
  37.180         56.67	     8.246
  37.200         54.17	     8.062
  37.220         55.00	     8.124
  37.240         59.17	     8.426
  37.260         60.83	     8.544
  37.280         69.17	     9.110
  37.300         65.83	     8.888
  37.320         60.00	     8.485
  37.340         65.00	     8.832
  37.360         58.33	     8.367
  37.380         63.33	     8.718
  37.400         75.83	     9.539
  37.420         60.00	     8.485
  37.440         82.50	     9.950
  37.460         72.50	     9.327
  37.480         86.67	    10.198
  37.500         79.17	     9.747
  37.520         86.67	    10.198
  37.540         80.00	     9.798
  37.560         90.00	    10.392
  37.580        104.17	    11.180
  37.600         95.00	    10.677
  37.620         93.33	    10.583
  37.640         93.33	    10.583
  37.660        102.50	    11.091
  37.680        100.83	    11.000
  37.700         97.50	    10.817
  37.720        127.50	    12.369
  37.740        111.67	    11.576
  37.760        104.17	    11.180
  37.780        105.00	    11.225
  37.800         98.33	    10.863
  37.820        107.50	    11.358
  37.840        107.50	    11.358
  37.860         94.17	    10.630
  37.880         94.17	    10.630
  37.900        105.00	    11.225
  37.920        105.83	    11.269
  37.940         98.33	    10.863
  37.960         78.33	     9.695
  37.980         66.67	     8.944
  38.000         60.83	     8.544
  38.020         68.33	     9.055
  38.040         53.33	     8.000
  38.060         55.83	     8.185
  38.080         51.67	     7.874
  38.100         45.00	     7.348
  38.120         38.33	     6.782
  38.140         46.67	     7.483
  38.160         49.17	     7.681
  38.180         60.83	     8.544
  38.200         60.83	     8.544
  38.220         55.00	     8.124
  38.240         38.33	     6.782
  38.260         45.83	     7.416
  38.280         50.00	     7.746
  38.300         48.33	     7.616
  38.320         43.33	     7.211
  38.340         50.83	     7.810
  38.360         35.83	     6.557
  38.380         35.83	     6.557
  38.400         38.33	     6.782
  38.420         31.67	     6.164
  38.440         39.17	     6.856
  38.460         45.00	     7.348
  38.480         31.67	     6.164
  38.500         42.50	     7.141
  38.520         32.50	     6.245
  38.540         25.83	     5.568
  38.560         44.17	     7.280
  38.580         41.67	     7.071
  38.600         40.00	     6.928
  38.620         45.00	     7.348
  38.640         49.17	     7.681
  38.660         50.83	     7.810
  38.680         36.67	     6.633
  38.700         38.33	     6.782
  38.720         49.17	     7.681
  38.740         42.50	     7.141
  38.760         64.17	     8.775
  38.780         35.83	     6.557
  38.800         38.33	     6.782
  38.820         42.50	     7.141
  38.840         45.00	     7.348
  38.860         42.50	     7.141
  38.880         41.67	     7.071
  38.900         40.83	     7.000
  38.920         57.50	     8.307
  38.940         39.17	     6.856
  38.960         49.17	     7.681
  38.980         58.33	     8.367
  39.000         43.33	     7.211
  39.020         53.33	     8.000
  39.040         45.83	     7.416
  39.060         50.83	     7.810
  39.080         52.50	     7.937
  39.100         42.50	     7.141
  39.120         47.50	     7.550
  39.140         38.33	     6.782
  39.160         40.00	     6.928
  39.180         38.33	     6.782
  39.200         38.33	     6.782
  39.220         25.83	     5.568
  39.240         38.33	     6.782
  39.260         42.50	     7.141
  39.280         49.17	     7.681
  39.300         41.67	     7.071
  39.320         50.00	     7.746
  39.340         46.67	     7.483
  39.360         41.67	     7.071
  39.380         34.17	     6.403
  39.400         36.67	     6.633
  39.420         43.33	     7.211
  39.440         41.67	     7.071
  39.460         43.33	     7.211
  39.480         51.67	     7.874
  39.500         42.50	     7.141
  39.520         50.83	     7.810
  39.540         56.67	     8.246
  39.560         83.33	    10.000
  39.580        120.00	    12.000
  39.600        115.00	    11.747
  39.620        116.67	    11.832
  39.640         87.50	    10.247
  39.660         76.67	     9.592
  39.680         78.33	     9.695
  39.700         98.33	    10.863
  39.720         68.33	     9.055
  39.740         75.83	     9.539
  39.760         67.50	     9.000
  39.780         68.33	     9.055
  39.800         55.83	     8.185
  39.820         60.00	     8.485
  39.840         51.67	     7.874
  39.860         67.50	     9.000
  39.880         49.17	     7.681
  39.900         60.00	     8.485
  39.920         60.00	     8.485
  39.940         46.67	     7.483
  39.960         62.50	     8.660
  39.980         52.50	     7.937
  40.000         48.33	     7.616
  40.020         55.00	     8.124
  40.040         45.00	     7.348
  40.060         60.00	     8.485
  40.080         54.17	     8.062
  40.100         56.67	     8.246
  40.120         68.33	     9.055
  40.140         45.83	     7.416
  40.160         44.17	     7.280
  40.180         63.33	     8.718
  40.200         49.17	     7.681
  40.220         55.83	     8.185
  40.240         59.17	     8.426
  40.260         64.17	     8.775
  40.280         60.83	     8.544
  40.300         50.83	     7.810
  40.320         57.50	     8.307
  40.340         51.67	     7.874
  40.360         70.00	     9.165
  40.380         67.50	     9.000
  40.400         88.33	    10.296
  40.420         89.17	    10.344
  40.440         75.00	     9.487
  40.460         61.67	     8.602
  40.480         64.17	     8.775
  40.500         63.33	     8.718
  40.520         65.00	     8.832
  40.540         53.33	     8.000
  40.560         57.50	     8.307
  40.580         47.50	     7.550
  40.600         48.33	     7.616
  40.620         48.33	     7.616
  40.640         46.67	     7.483
  40.660         42.50	     7.141
  40.680         42.50	     7.141
  40.700         35.00	     6.481
  40.720         45.83	     7.416
  40.740         31.67	     6.164
  40.760         35.00	     6.481
  40.780         44.17	     7.280
  40.800         46.67	     7.483
  40.820         33.33	     6.325
  40.840         43.33	     7.211
  40.860         41.67	     7.071
  40.880         43.33	     7.211
  40.900         49.17	     7.681
  40.920         45.00	     7.348
  40.940         51.67	     7.874
  40.960         54.17	     8.062
  40.980         41.67	     7.071
  41.000         55.83	     8.185
  41.020         60.00	     8.485
  41.040         40.83	     7.000
  41.060         49.17	     7.681
  41.080         34.17	     6.403
  41.100         60.00	     8.485
  41.120         51.67	     7.874
  41.140         46.67	     7.483
  41.160         54.17	     8.062
  41.180         40.00	     6.928
  41.200         40.83	     7.000
  41.220         52.50	     7.937
  41.240         40.83	     7.000
  41.260         49.17	     7.681
  41.280         50.00	     7.746
  41.300         50.83	     7.810
  41.320         55.83	     8.185
  41.340         50.83	     7.810
  41.360         59.17	     8.426
  41.380         68.33	     9.055
  41.400         77.50	     9.644
  41.420         59.17	     8.426
  41.440         60.83	     8.544
  41.460         61.67	     8.602
  41.480         59.17	     8.426
  41.500         57.50	     8.307
  41.520         52.50	     7.937
  41.540         66.67	     8.944
  41.560         67.50	     9.000
  41.580         50.83	     7.810
  41.600         56.67	     8.246
  41.620         64.17	     8.775
  41.640         54.17	     8.062
  41.660         69.17	     9.110
  41.680         50.83	     7.810
  41.700         60.83	     8.544
  41.720         50.83	     7.810
  41.740         51.67	     7.874
  41.760         55.83	     8.185
  41.780         54.17	     8.062
  41.800         66.67	     8.944
  41.820         71.67	     9.274
  41.840         57.50	     8.307
  41.860         67.50	     9.000
  41.880         79.17	     9.747
  41.900         67.50	     9.000
  41.920         65.00	     8.832
  41.940         64.17	     8.775
  41.960         71.67	     9.274
  41.980         63.33	     8.718
  42.000         60.00	     8.485
  42.020         75.00	     9.487
  42.040         60.00	     8.485
  42.060         76.67	     9.592
  42.080         73.33	     9.381
  42.100         73.33	     9.381
  42.120         58.33	     8.367
  42.140         51.67	     7.874
  42.160         77.50	     9.644
  42.180         79.17	     9.747
  42.200         65.83	     8.888
  42.220         63.33	     8.718
  42.240         56.67	     8.246
  42.260         52.50	     7.937
  42.280         56.67	     8.246
  42.300         65.83	     8.888
  42.320         79.17	     9.747
  42.340         66.67	     8.944
  42.360         78.33	     9.695
  42.380         80.00	     9.798
  42.400         87.50	    10.247
  42.420         84.17	    10.050
  42.440         80.00	     9.798
  42.460         98.33	    10.863
  42.480         89.17	    10.344
  42.500        108.33	    11.402
  42.520        117.50	    11.874
  42.540        120.00	    12.000
  42.560        155.00	    13.638
  42.580        144.17	    13.153
  42.600        131.67	    12.570
  42.620        120.00	    12.000
  42.640        120.83	    12.042
  42.660         97.50	    10.817
  42.680        106.67	    11.314
  42.700         77.50	     9.644
  42.720         93.33	    10.583
  42.740         67.50	     9.000
  42.760         75.00	     9.487
  42.780         64.17	     8.775
  42.800         62.50	     8.660
  42.820         58.33	     8.367
  42.840         52.50	     7.937
  42.860         47.50	     7.550
  42.880         57.50	     8.307
  42.900         66.67	     8.944
  42.920         50.83	     7.810
  42.940         60.00	     8.485
  42.960         65.00	     8.832
  42.980         46.67	     7.483
  43.000         58.33	     8.367
  43.020         45.00	     7.348
  43.040         43.33	     7.211
  43.060         58.33	     8.367
  43.080         49.17	     7.681
  43.100         45.83	     7.416
  43.120         59.17	     8.426
  43.140         48.33	     7.616
  43.160         50.83	     7.810
  43.180         41.67	     7.071
  43.200         35.00	     6.481
  43.220         32.50	     6.245
  43.240         35.00	     6.481
  43.260         32.50	     6.245
  43.280         38.33	     6.782
  43.300         45.83	     7.416
  43.320         34.17	     6.403
  43.340         33.33	     6.325
  43.360         30.00	     6.000
  43.380         26.67	     5.657
  43.400         35.00	     6.481
  43.420         29.17	     5.916
  43.440         31.67	     6.164
  43.460         49.17	     7.681
  43.480         32.50	     6.245
  43.500         40.83	     7.000
  43.520         32.50	     6.245
  43.540         40.83	     7.000
  43.560         35.83	     6.557
  43.580         44.17	     7.280
  43.600         41.67	     7.071
  43.620         39.17	     6.856
  43.640         31.67	     6.164
  43.660         44.17	     7.280
  43.680         47.50	     7.550
  43.700         50.00	     7.746
  43.720         41.67	     7.071
  43.740         47.50	     7.550
  43.760         40.00	     6.928
  43.780         35.00	     6.481
  43.800         44.17	     7.280
  43.820         48.33	     7.616
  43.840         45.83	     7.416
  43.860         45.00	     7.348
  43.880         46.67	     7.483
  43.900         40.00	     6.928
  43.920         44.17	     7.280
  43.940         37.50	     6.708
  43.960         41.67	     7.071
  43.980         45.00	     7.348
  44.000         42.50	     7.141
  44.020         52.50	     7.937
  44.040         32.50	     6.245
  44.060         52.50	     7.937
  44.080         50.83	     7.810
  44.100         40.83	     7.000
  44.120         47.50	     7.550
  44.140         45.00	     7.348
  44.160         55.83	     8.185
  44.180         40.83	     7.000
  44.200         48.33	     7.616
  44.220         45.00	     7.348
  44.240         35.83	     6.557
  44.260         53.33	     8.000
  44.280         48.33	     7.616
  44.300         34.17	     6.403
  44.320         65.83	     8.888
  44.340         42.50	     7.141
  44.360         55.83	     8.185
  44.380         69.17	     9.110
  44.400         52.50	     7.937
  44.420         49.17	     7.681
  44.440         54.17	     8.062
  44.460         40.83	     7.000
  44.480         54.17	     8.062
  44.500         55.00	     8.124
  44.520         57.50	     8.307
  44.540         48.33	     7.616
  44.560         47.50	     7.550
  44.580         56.67	     8.246
  44.600         43.33	     7.211
  44.620         44.17	     7.280
  44.640         56.67	     8.246
  44.660         46.67	     7.483
  44.680         52.50	     7.937
  44.700         49.17	     7.681
  44.720         40.83	     7.000
  44.740         54.17	     8.062
  44.760         45.00	     7.348
  44.780         46.67	     7.483
  44.800         49.17	     7.681
  44.820         41.67	     7.071
  44.840         52.50	     7.937
  44.860         59.17	     8.426
  44.880         55.00	     8.124
  44.900         70.00	     9.165
  44.920         50.00	     7.746
  44.940         57.50	     8.307
  44.960         75.00	     9.487
  44.980         68.33	     9.055
  45.000         75.83	     9.539
  45.020         71.67	     9.274
  45.040         77.50	     9.644
  45.060         72.50	     9.327
  45.080         82.50	     9.950
  45.100         83.33	    10.000
  45.120         66.67	     8.944
  45.140         71.67	     9.274
  45.160         81.67	     9.899
  45.180         95.00	    10.677
  45.200         73.33	     9.381
  45.220         78.33	     9.695
  45.240         85.83	    10.149
  45.260         84.17	    10.050
  45.280         90.00	    10.392
  45.300        102.50	    11.091
  45.320         80.00	     9.798
  45.340         95.83	    10.724
  45.360         95.00	    10.677
  45.380         98.33	    10.863
  45.400        113.33	    11.662
  45.420        100.00	    10.954
  45.440        138.33	    12.884
  45.460        118.33	    11.916
  45.480        136.67	    12.806
  45.500        136.67	    12.806
  45.520        154.17	    13.601
  45.540        145.83	    13.229
  45.560        179.17	    14.663
  45.580        210.83	    15.906
  45.600        211.67	    15.937
  45.620        242.50	    17.059
  45.640        245.00	    17.146
  45.660        250.83	    17.349
  45.680        267.50	    17.916
  45.700        259.17	    17.635
  45.720        262.50	    17.748
  45.740        274.17	    18.138
  45.760        264.17	    17.804
  45.780        225.00	    16.432
  45.800        225.83	    16.462
  45.820        169.17	    14.248
  45.840        186.67	    14.967
  45.860        151.67	    13.491
  45.880        145.00	    13.191
  45.900        154.17	    13.601
  45.920        141.67	    13.038
  45.940        124.17	    12.207
  45.960        105.00	    11.225
  45.980         87.50	    10.247
  46.000         91.67	    10.488
  46.020         78.33	     9.695
  46.040         69.17	     9.110
  46.060         87.50	    10.247
  46.080         89.17	    10.344
  46.100         65.83	     8.888
  46.120         65.83	     8.888
  46.140         90.83	    10.440
  46.160         72.50	     9.327
  46.180         75.83	     9.539
  46.200         76.67	     9.592
  46.220         70.83	     9.220
  46.240         62.50	     8.660
  46.260         58.33	     8.367
  46.280         49.17	     7.681
  46.300         52.50	     7.937
  46.320         59.17	     8.426
  46.340         57.50	     8.307
  46.360         57.50	     8.307
  46.380         50.83	     7.810
  46.400         46.67	     7.483
  46.420         44.17	     7.280
  46.440         46.67	     7.483
  46.460         49.17	     7.681
  46.480         37.50	     6.708
  46.500         45.83	     7.416
  46.520         41.67	     7.071
  46.540         40.83	     7.000
  46.560         42.50	     7.141
  46.580         50.83	     7.810
  46.600         41.67	     7.071
  46.620         35.00	     6.481
  46.640         40.83	     7.000
  46.660         44.17	     7.280
  46.680         36.67	     6.633
  46.700         41.67	     7.071
  46.720         51.67	     7.874
  46.740         54.17	     8.062
  46.760         43.33	     7.211
  46.780         42.50	     7.141
  46.800         37.50	     6.708
  46.820         30.83	     6.083
  46.840         44.17	     7.280
  46.860         34.17	     6.403
  46.880         43.33	     7.211
  46.900         36.67	     6.633
  46.920         43.33	     7.211
  46.940         47.50	     7.550
  46.960         45.83	     7.416
  46.980         38.33	     6.782
  47.000         43.33	     7.211
  47.020         40.83	     7.000
  47.040         34.17	     6.403
  47.060         42.50	     7.141
  47.080         37.50	     6.708
  47.100         49.17	     7.681
  47.120         40.83	     7.000
  47.140         40.83	     7.000
  47.160         57.50	     8.307
  47.180         52.50	     7.937
  47.200         55.83	     8.185
  47.220         60.00	     8.485
  47.240         65.00	     8.832
  47.260         65.00	     8.832
  47.280         68.33	     9.055
  47.300         64.17	     8.775
  47.320         51.67	     7.874
  47.340         43.33	     7.211
  47.360         38.33	     6.782
  47.380         50.83	     7.810
  47.400         50.00	     7.746
  47.420         41.67	     7.071
  47.440         37.50	     6.708
  47.460         44.17	     7.280
  47.480         38.33	     6.782
  47.500         36.67	     6.633
  47.520         42.50	     7.141
  47.540         36.67	     6.633
  47.560         45.00	     7.348
  47.580         42.50	     7.141
  47.600         44.17	     7.280
  47.620         40.00	     6.928
  47.640         50.83	     7.810
  47.660         46.67	     7.483
  47.680         32.50	     6.245
  47.700         46.67	     7.483
  47.720         38.33	     6.782
  47.740         30.83	     6.083
  47.760         41.67	     7.071
  47.780         34.17	     6.403
  47.800         31.67	     6.164
  47.820         34.17	     6.403
  47.840         35.83	     6.557
  47.860         35.83	     6.557
  47.880         41.67	     7.071
  47.900         44.17	     7.280
  47.920         31.67	     6.164
  47.940         30.83	     6.083
  47.960         43.33	     7.211
  47.980         37.50	     6.708
  48.000         36.67	     6.633
  48.020         32.50	     6.245
  48.040         42.50	     7.141
  48.060         41.67	     7.071
  48.080         45.83	     7.416
  48.100         65.00	     8.832
  48.120         60.00	     8.485
  48.140         52.50	     7.937
  48.160         55.83	     8.185
  48.180         51.67	     7.874
  48.200         50.83	     7.810
  48.220         75.83	     9.539
  48.240         58.33	     8.367
  48.260         65.00	     8.832
  48.280         81.67	     9.899
  48.300         86.67	    10.198
  48.320         66.67	     8.944
  48.340         65.83	     8.888
  48.360         69.17	     9.110
  48.380         75.00	     9.487
  48.400         57.50	     8.307
  48.420         65.00	     8.832
  48.440         65.00	     8.832
  48.460         62.50	     8.660
  48.480         53.33	     8.000
  48.500         56.67	     8.246
  48.520         55.00	     8.124
  48.540         54.17	     8.062
  48.560         64.17	     8.775
  48.580         54.17	     8.062
  48.600         57.50	     8.307
  48.620         59.17	     8.426
  48.640         47.50	     7.550
  48.660         48.33	     7.616
  48.680         55.83	     8.185
  48.700         40.83	     7.000
  48.720         39.17	     6.856
  48.740         33.33	     6.325
  48.760         38.33	     6.782
  48.780         46.67	     7.483
  48.800         38.33	     6.782
  48.820         39.17	     6.856
  48.840         42.50	     7.141
  48.860         41.67	     7.071
  48.880         43.33	     7.211
  48.900         35.83	     6.557
  48.920         39.17	     6.856
  48.940         35.00	     6.481
  48.960         35.83	     6.557
  48.980         37.50	     6.708
  49.000         35.83	     6.557
  49.020         31.67	     6.164
  49.040         41.67	     7.071
  49.060         34.17	     6.403
  49.080         40.00	     6.928
  49.100         39.17	     6.856
  49.120         42.50	     7.141
  49.140         28.33	     5.831
  49.160         44.17	     7.280
  49.180         45.83	     7.416
  49.200         40.83	     7.000
  49.220         35.83	     6.557
  49.240         45.00	     7.348
  49.260         39.17	     6.856
  49.280         47.50	     7.550
  49.300         47.50	     7.550
  49.320         61.67	     8.602
  49.340         69.17	     9.110
  49.360         50.83	     7.810
  49.380         63.33	     8.718
  49.400         43.33	     7.211
  49.420         42.50	     7.141
  49.440         44.17	     7.280
  49.460         43.33	     7.211
  49.480         48.33	     7.616
  49.500         49.17	     7.681
  49.520         44.17	     7.280
  49.540         44.17	     7.280
  49.560         35.83	     6.557
  49.580         40.00	     6.928
  49.600         47.50	     7.550
  49.620         38.33	     6.782
  49.640         38.33	     6.782
  49.660         40.00	     6.928
  49.680         49.17	     7.681
  49.700         47.50	     7.550
  49.720         41.67	     7.071
  49.740         35.83	     6.557
  49.760         38.33	     6.782
  49.780         45.00	     7.348
  49.800         44.17	     7.280
  49.820         45.00	     7.348
  49.840         41.67	     7.071
  49.860         47.50	     7.550
  49.880         41.67	     7.071
  49.900         55.83	     8.185
  49.920         57.50	     8.307
  49.940         55.00	     8.124
  49.960         53.33	     8.000
  49.980         61.67	     8.602
  50.000         58.33	     8.367
  50.020         71.67	     9.274
  50.040         86.67	    10.198
  50.060         96.67	    10.770
  50.080         82.50	     9.950
  50.100         84.17	    10.050
  50.120         90.00	    10.392
  50.140         88.33	    10.296
  50.160         95.00	    10.677
  50.180         97.50	    10.817
  50.200        121.67	    12.083
  50.220        192.50	    15.199
  50.240        218.33	    16.186
  50.260        274.17	    18.138
  50.280        210.83	    15.906
  50.300        153.33	    13.565
  50.320        103.33	    11.136
  50.340        112.50	    11.619
  50.360        117.50	    11.874
  50.380        129.17	    12.450
  50.400        157.50	    13.748
  50.420        127.50	    12.369
  50.440         92.50	    10.536
  50.460         60.83	     8.544
  50.480         54.17	     8.062
  50.500         50.83	     7.810
  50.520         48.33	     7.616
  50.540         40.00	     6.928
  50.560         48.33	     7.616
  50.580         49.17	     7.681
  50.600         69.17	     9.110
  50.620         61.67	     8.602
  50.640         66.67	     8.944
  50.660         58.33	     8.367
  50.680         65.83	     8.888
  50.700         95.00	    10.677
  50.720         76.67	     9.592
  50.740         73.33	     9.381
  50.760         84.17	    10.050
  50.780         80.00	     9.798
  50.800         63.33	     8.718
  50.820         64.17	     8.775
  50.840         61.67	     8.602
  50.860         56.67	     8.246
  50.880         62.50	     8.660
  50.900         46.67	     7.483
  50.920         45.83	     7.416
  50.940         52.50	     7.937
  50.960         42.50	     7.141
  50.980         43.33	     7.211
  51.000         35.00	     6.481
  51.020         41.67	     7.071
  51.040         30.83	     6.083
  51.060         30.83	     6.083
  51.080         34.17	     6.403
  51.100         25.83	     5.568
  51.120         33.33	     6.325
  51.140         35.00	     6.481
  51.160         39.17	     6.856
  51.180         47.50	     7.550
  51.200         46.67	     7.483
  51.220         60.00	     8.485
  51.240         74.17	     9.434
  51.260         65.83	     8.888
  51.280         64.17	     8.775
  51.300         57.50	     8.307
  51.320         48.33	     7.616
  51.340         50.00	     7.746
  51.360         51.67	     7.874
  51.380         50.00	     7.746
  51.400         62.50	     8.660
  51.420         67.50	     9.000
  51.440         65.00	     8.832
  51.460         53.33	     8.000
  51.480         48.33	     7.616
  51.500         41.67	     7.071
  51.520         51.67	     7.874
  51.540         41.67	     7.071
  51.560         41.67	     7.071
  51.580         34.17	     6.403
  51.600         38.33	     6.782
  51.620         32.50	     6.245
  51.640         32.50	     6.245
  51.660         31.67	     6.164
  51.680         34.17	     6.403
  51.700         30.83	     6.083
  51.720         31.67	     6.164
  51.740         38.33	     6.782
  51.760         31.67	     6.164
  51.780         29.17	     5.916
  51.800         30.00	     6.000
  51.820         32.50	     6.245
  51.840         40.00	     6.928
  51.860         28.33	     5.831
  51.880         27.50	     5.745
  51.900         26.67	     5.657
  51.920         36.67	     6.633
  51.940         33.33	     6.325
  51.960         30.83	     6.083
  51.980         31.67	     6.164
  52.000         20.00	     4.899
  52.020         45.00	     7.348
  52.040         27.50	     5.745
  52.060         28.33	     5.831
  52.080         42.50	     7.141
  52.100         30.83	     6.083
  52.120         33.33	     6.325
  52.140         35.00	     6.481
  52.160         31.67	     6.164
  52.180         42.50	     7.141
  52.200         36.67	     6.633
  52.220         47.50	     7.550
  52.240         41.67	     7.071
  52.260         36.67	     6.633
  52.280         35.83	     6.557
  52.300         34.17	     6.403
  52.320         43.33	     7.211
  52.340         40.00	     6.928
  52.360         38.33	     6.782
  52.380         45.00	     7.348
  52.400         45.83	     7.416
  52.420         45.00	     7.348
  52.440         47.50	     7.550
  52.460         46.67	     7.483
  52.480         50.00	     7.746
  52.500         47.50	     7.550
  52.520         51.67	     7.874
  52.540         50.83	     7.810
  52.560         47.50	     7.550
  52.580         45.83	     7.416
  52.600         50.00	     7.746
  52.620         50.83	     7.810
  52.640         48.33	     7.616
  52.660         45.83	     7.416
  52.680         33.33	     6.325
  52.700         34.17	     6.403
  52.720         40.83	     7.000
  52.740         31.67	     6.164
  52.760         50.83	     7.810
  52.780         38.33	     6.782
  52.800         45.00	     7.348
  52.820         35.00	     6.481
  52.840         51.67	     7.874
  52.860         45.83	     7.416
  52.880         43.33	     7.211
  52.900         36.67	     6.633
  52.920         59.17	     8.426
  52.940         48.33	     7.616
  52.960         54.17	     8.062
  52.980         49.17	     7.681
  53.000         44.17	     7.280
  53.020         65.00	     8.832
  53.040         53.33	     8.000
  53.060         55.83	     8.185
  53.080         70.83	     9.220
  53.100         49.17	     7.681
  53.120         51.67	     7.874
  53.140         40.83	     7.000
  53.160         55.83	     8.185
  53.180         39.17	     6.856
  53.200         59.17	     8.426
  53.220         55.00	     8.124
  53.240         53.33	     8.000
  53.260         57.50	     8.307
  53.280         50.00	     7.746
  53.300         64.17	     8.775
  53.320         69.17	     9.110
  53.340         69.17	     9.110
  53.360         58.33	     8.367
  53.380         57.50	     8.307
  53.400         60.00	     8.485
  53.420         58.33	     8.367
  53.440         65.00	     8.832
  53.460         65.83	     8.888
  53.480         57.50	     8.307
  53.500         45.00	     7.348
  53.520         42.50	     7.141
  53.540         44.17	     7.280
  53.560         54.17	     8.062
  53.580         47.50	     7.550
  53.600         30.83	     6.083
  53.620         40.83	     7.000
  53.640         34.17	     6.403
  53.660         43.33	     7.211
  53.680         35.83	     6.557
  53.700         40.83	     7.000
  53.720         38.33	     6.782
  53.740         45.83	     7.416
  53.760         43.33	     7.211
  53.780         38.33	     6.782
  53.800         50.00	     7.746
  53.820         40.00	     6.928
  53.840         35.00	     6.481
  53.860         44.17	     7.280
  53.880         38.33	     6.782
  53.900         36.67	     6.633
  53.920         49.17	     7.681
  53.940         40.83	     7.000
  53.960         38.33	     6.782
  53.980         43.33	     7.211
  54.000         45.83	     7.416
  54.020         40.83	     7.000
  54.040         51.67	     7.874
  54.060         48.33	     7.616
  54.080         43.33	     7.211
  54.100         42.50	     7.141
  54.120         33.33	     6.325
  54.140         32.50	     6.245
  54.160         40.83	     7.000
  54.180         49.17	     7.681
  54.200         42.50	     7.141
  54.220         44.17	     7.280
  54.240         36.67	     6.633
  54.260         31.67	     6.164
  54.280         41.67	     7.071
  54.300         41.67	     7.071
  54.320         44.17	     7.280
  54.340         45.83	     7.416
  54.360         54.17	     8.062
  54.380         53.33	     8.000
  54.400         54.17	     8.062
  54.420         43.33	     7.211
  54.440         49.17	     7.681
  54.460         55.83	     8.185
  54.480         53.33	     8.000
  54.500         56.67	     8.246
  54.520         52.50	     7.937
  54.540         64.17	     8.775
  54.560         40.83	     7.000
  54.580         57.50	     8.307
  54.600         50.83	     7.810
  54.620         57.50	     8.307
  54.640         56.67	     8.246
  54.660         55.83	     8.185
  54.680         76.67	     9.592
  54.700         62.50	     8.660
  54.720         60.83	     8.544
  54.740         65.00	     8.832
  54.760         68.33	     9.055
  54.780         57.50	     8.307
  54.800         52.50	     7.937
  54.820         66.67	     8.944
  54.840         51.67	     7.874
  54.860         61.67	     8.602
  54.880         50.00	     7.746
  54.900         65.83	     8.888
  54.920         67.50	     9.000
  54.940         85.00	    10.100
  54.960         93.33	    10.583
  54.980         99.17	    10.909
  55.000         94.17	    10.630
  55.020         89.17	    10.344
  55.040         80.00	     9.798
  55.060         72.50	     9.327
  55.080         78.33	     9.695
  55.100         80.00	     9.798
  55.120         81.67	     9.899
  55.140         86.67	    10.198
  55.160         71.67	     9.274
  55.180         75.83	     9.539
  55.200         74.17	     9.434
  55.220         70.00	     9.165
  55.240         80.00	     9.798
  55.260         66.67	     8.944
  55.280         65.83	     8.888
  55.300         71.67	     9.274
  55.320         73.33	     9.381
  55.340         75.00	     9.487
  55.360         66.67	     8.944
  55.380        103.33	    11.136
  55.400         93.33	    10.583
  55.420         90.83	    10.440
  55.440        101.67	    11.045
  55.460        100.00	    10.954
  55.480         90.83	    10.440
  55.500         74.17	     9.434
  55.520         95.83	    10.724
  55.540         80.83	     9.849
  55.560         72.50	     9.327
  55.580         75.00	     9.487
  55.600         70.00	     9.165
  55.620         70.00	     9.165
  55.640         69.17	     9.110
  55.660         71.67	     9.274
  55.680         83.33	    10.000
  55.700         74.17	     9.434
  55.720         70.83	     9.220
  55.740         96.67	    10.770
  55.760         72.50	     9.327
  55.780         87.50	    10.247
  55.800         77.50	     9.644
  55.820        125.83	    12.288
  55.840        103.33	    11.136
  55.860        121.67	    12.083
  55.880        100.00	    10.954
  55.900        120.83	    12.042
  55.920         95.00	    10.677
  55.940         95.83	    10.724
  55.960        115.83	    11.790
  55.980        130.00	    12.490
  56.000        119.17	    11.958
  56.020        103.33	    11.136
  56.040        104.17	    11.180
  56.060         90.00	    10.392
  56.080        105.83	    11.269
  56.100         71.67	     9.274
  56.120         97.50	    10.817
  56.140         81.67	     9.899
  56.160         81.67	     9.899
  56.180         73.33	     9.381
  56.200         67.50	     9.000
  56.220         65.83	     8.888
  56.240         51.67	     7.874
  56.260         57.50	     8.307
  56.280         57.50	     8.307
  56.300         48.33	     7.616
  56.320         53.33	     8.000
  56.340         58.33	     8.367
  56.360         50.00	     7.746
  56.380         46.67	     7.483
  56.400         45.83	     7.416
  56.420         35.00	     6.481
  56.440         48.33	     7.616
  56.460         35.00	     6.481
  56.480         43.33	     7.211
  56.500         47.50	     7.550
  56.520         45.83	     7.416
  56.540         37.50	     6.708
  56.560         37.50	     6.708
  56.580         28.33	     5.831
  56.600         35.00	     6.481
  56.620         42.50	     7.141
  56.640         40.83	     7.000
  56.660         29.17	     5.916
  56.680         35.00	     6.481
  56.700         41.67	     7.071
  56.720         30.83	     6.083
  56.740         40.83	     7.000
  56.760         44.17	     7.280
  56.780         35.83	     6.557
  56.800         31.67	     6.164
  56.820         42.50	     7.141
  56.840         45.83	     7.416
  56.860         39.17	     6.856
  56.880         43.33	     7.211
  56.900         34.17	     6.403
  56.920         45.83	     7.416
  56.940         45.00	     7.348
  56.960         48.33	     7.616
  56.980         40.83	     7.000
  57.000         45.83	     7.416
  57.020         47.50	     7.550
  57.040         34.17	     6.403
  57.060         33.33	     6.325
  57.080         37.50	     6.708
  57.100         41.67	     7.071
  57.120         35.83	     6.557
  57.140         31.67	     6.164
  57.160         40.83	     7.000
  57.180         41.67	     7.071
  57.200         35.83	     6.557
  57.220         38.33	     6.782
  57.240         50.83	     7.810
  57.260         40.83	     7.000
  57.280         38.33	     6.782
  57.300         40.83	     7.000
  57.320         44.17	     7.280
  57.340         41.67	     7.071
  57.360         49.17	     7.681
  57.380         41.67	     7.071
  57.400         34.17	     6.403
  57.420         48.33	     7.616
  57.440         35.83	     6.557
  57.460         35.83	     6.557
  57.480         35.00	     6.481
  57.500         35.83	     6.557
  57.520         43.33	     7.211
  57.540         40.00	     6.928
  57.560         40.00	     6.928
  57.580         34.17	     6.403
  57.600         50.83	     7.810
  57.620         36.67	     6.633
  57.640         55.83	     8.185
  57.660         44.17	     7.280
  57.680         38.33	     6.782
  57.700         25.00	     5.477
  57.720         45.00	     7.348
  57.740         49.17	     7.681
  57.760         39.17	     6.856
  57.780         41.67	     7.071
  57.800         35.83	     6.557
  57.820         45.00	     7.348
  57.840         41.67	     7.071
  57.860         35.00	     6.481
  57.880         45.00	     7.348
  57.900         30.00	     6.000
  57.920         34.17	     6.403
  57.940         35.83	     6.557
  57.960         47.50	     7.550
  57.980         35.83	     6.557
  58.000         44.17	     7.280
  58.020         28.33	     5.831
  58.040         41.67	     7.071
  58.060         34.17	     6.403
  58.080         34.17	     6.403
  58.100         42.50	     7.141
  58.120         40.83	     7.000
  58.140         38.33	     6.782
  58.160         40.00	     6.928
  58.180         39.17	     6.856
  58.200         30.83	     6.083
  58.220         40.00	     6.928
  58.240         45.00	     7.348
  58.260         41.67	     7.071
  58.280         39.17	     6.856
  58.300         46.67	     7.483
  58.320         30.83	     6.083
  58.340         42.50	     7.141
  58.360         39.17	     6.856
  58.380         31.67	     6.164
  58.400         50.83	     7.810
  58.420         52.50	     7.937
  58.440         35.83	     6.557
  58.460         32.50	     6.245
  58.480         47.50	     7.550
  58.500         43.33	     7.211
  58.520         40.83	     7.000
  58.540         36.67	     6.633
  58.560         39.17	     6.856
  58.580         55.00	     8.124
  58.600         39.17	     6.856
  58.620         40.00	     6.928
  58.640         54.17	     8.062
  58.660         45.00	     7.348
  58.680         50.00	     7.746
  58.700         55.00	     8.124
  58.720         56.67	     8.246
  58.740         53.33	     8.000
  58.760         55.00	     8.124
  58.780         49.17	     7.681
  58.800         70.00	     9.165
  58.820         49.17	     7.681
  58.840         46.67	     7.483
  58.860         60.83	     8.544
  58.880         61.67	     8.602
  58.900         55.00	     8.124
  58.920         58.33	     8.367
  58.940         58.33	     8.367
  58.960         52.50	     7.937
  58.980         52.50	     7.937
  59.000         75.00	     9.487
  59.020         57.50	     8.307
  59.040         59.17	     8.426
  59.060         70.83	     9.220
  59.080         77.50	     9.644
  59.100         74.17	     9.434
  59.120         69.17	     9.110
  59.140         57.50	     8.307
  59.160         57.50	     8.307
  59.180         50.83	     7.810
  59.200         52.50	     7.937
  59.220         59.17	     8.426
  59.240         55.83	     8.185
  59.260         54.17	     8.062
  59.280         70.83	     9.220
  59.300         67.50	     9.000
  59.320         73.33	     9.381
  59.340         63.33	     8.718
  59.360         53.33	     8.000
  59.380         71.67	     9.274
  59.400         54.17	     8.062
  59.420         50.83	     7.810
  59.440         54.17	     8.062
  59.460         64.17	     8.775
  59.480         59.17	     8.426
  59.500         45.83	     7.416
  59.520         58.33	     8.367
  59.540         52.50	     7.937
  59.560         61.67	     8.602
  59.580         56.67	     8.246
  59.600         46.67	     7.483
  59.620         47.50	     7.550
  59.640         49.17	     7.681
  59.660         48.33	     7.616
  59.680         51.67	     7.874
  59.700         47.50	     7.550
  59.720         63.33	     8.718
  59.740         49.17	     7.681
  59.760         49.17	     7.681
  59.780         59.17	     8.426
  59.800         68.33	     9.055
  59.820         60.83	     8.544
  59.840         55.83	     8.185
  59.860         55.00	     8.124
  59.880         57.50	     8.307
  59.900         70.00	     9.165
  59.920         65.00	     8.832
  59.940         69.17	     9.110
  59.960         80.00	     9.798
  59.980         77.50	     9.644
  60.000         87.50	    10.247
  60.020        104.17	    11.180
  60.040        130.00	    12.490
  60.060        160.83	    13.892
  60.080        174.17	    14.457
  60.100        147.50	    13.304
  60.120        112.50	    11.619
  60.140         94.17	    10.630
  60.160         95.83	    10.724
  60.180        121.67	    12.083
  60.200        102.50	    11.091
  60.220        110.00	    11.489
  60.240        124.17	    12.207
  60.260        100.00	    10.954
  60.280        100.00	    10.954
  60.300         73.33	     9.381
  60.320         61.67	     8.602
  60.340         75.83	     9.539
  60.360         57.50	     8.307
  60.380         63.33	     8.718
  60.400         64.17	     8.775
  60.420         67.50	     9.000
  60.440         50.00	     7.746
  60.460         60.83	     8.544
  60.480         52.50	     7.937
  60.500         58.33	     8.367
  60.520         56.67	     8.246
  60.540         65.00	     8.832
  60.560         57.50	     8.307
  60.580         60.00	     8.485
  60.600         56.67	     8.246
  60.620         49.17	     7.681
  60.640         55.83	     8.185
  60.660         51.67	     7.874
  60.680         55.00	     8.124
  60.700         66.67	     8.944
  60.720         36.67	     6.633
  60.740         52.50	     7.937
  60.760         65.83	     8.888
  60.780         40.00	     6.928
  60.800         76.67	     9.592
  60.820         64.17	     8.775
  60.840         80.83	     9.849
  60.860         75.00	     9.487
  60.880         66.67	     8.944
  60.900         72.50	     9.327
  60.920         74.17	     9.434
  60.940         69.17	     9.110
  60.960         66.67	     8.944
  60.980         86.67	    10.198
  61.000         78.33	     9.695
  61.020         80.83	     9.849
  61.040         82.50	     9.950
  61.060         85.00	    10.100
  61.080         84.17	    10.050
  61.100         76.67	     9.592
  61.120         87.50	    10.247
  61.140         79.17	     9.747
  61.160         70.83	     9.220
  61.180         62.50	     8.660
  61.200         73.33	     9.381
  61.220         86.67	    10.198
  61.240         65.00	     8.832
  61.260         58.33	     8.367
  61.280         69.17	     9.110
  61.300         72.50	     9.327
  61.320         63.33	     8.718
  61.340         47.50	     7.550
  61.360         45.83	     7.416
  61.380         57.50	     8.307
  61.400         59.17	     8.426
  61.420         45.83	     7.416
  61.440         50.83	     7.810
  61.460         55.00	     8.124
  61.480         57.50	     8.307
  61.500         68.33	     9.055
  61.520         62.50	     8.660
  61.540         77.50	     9.644
  61.560         80.83	     9.849
  61.580         83.33	    10.000
  61.600         71.67	     9.274
  61.620         85.00	    10.100
  61.640         77.50	     9.644
  61.660         81.67	     9.899
  61.680         68.33	     9.055
  61.700         68.33	     9.055
  61.720         94.17	    10.630
  61.740         82.50	     9.950
  61.760         66.67	     8.944
  61.780         80.00	     9.798
  61.800         67.50	     9.000
  61.820         88.33	    10.296
  61.840         72.50	     9.327
  61.860         80.83	     9.849
  61.880         63.33	     8.718
  61.900         60.00	     8.485
  61.920         64.17	     8.775
  61.940         66.67	     8.944
  61.960         72.50	     9.327
  61.980         72.50	     9.327
  62.000         52.50	     7.937
  62.020         60.83	     8.544
  62.040         53.33	     8.000
  62.060         62.50	     8.660
  62.080         55.83	     8.185
  62.100         53.33	     8.000
  62.120         43.33	     7.211
  62.140         48.33	     7.616
  62.160         55.00	     8.124
  62.180         51.67	     7.874
  62.200         55.00	     8.124
  62.220         63.33	     8.718
  62.240         53.33	     8.000
  62.260         55.00	     8.124
  62.280         46.67	     7.483
  62.300         45.83	     7.416
  62.320         48.33	     7.616
  62.340         48.33	     7.616
  62.360         56.67	     8.246
  62.380         46.67	     7.483
  62.400         47.50	     7.550
  62.420         42.50	     7.141
  62.440         47.50	     7.550
  62.460         45.83	     7.416
  62.480         40.00	     6.928
  62.500         38.33	     6.782
  62.520         38.33	     6.782
  62.540         45.83	     7.416
  62.560         45.00	     7.348
  62.580         36.67	     6.633
  62.600         45.83	     7.416
  62.620         38.33	     6.782
  62.640         33.33	     6.325
  62.660         50.83	     7.810
  62.680         31.67	     6.164
  62.700         27.50	     5.745
  62.720         41.67	     7.071
  62.740         41.67	     7.071
  62.760         40.83	     7.000
  62.780         58.33	     8.367
  62.800         50.83	     7.810
  62.820         33.33	     6.325
  62.840         50.83	     7.810
  62.860         41.67	     7.071
  62.880         44.17	     7.280
  62.900         36.67	     6.633
  62.920         37.50	     6.708
  62.940         45.83	     7.416
  62.960         50.00	     7.746
  62.980         50.00	     7.746
  63.000         58.33	     8.367
  63.020         38.33	     6.782
  63.040         50.00	     7.746
  63.060         39.17	     6.856
  63.080         32.50	     6.245
  63.100         31.67	     6.164
  63.120         44.17	     7.280
  63.140         46.67	     7.483
  63.160         40.83	     7.000
  63.180         48.33	     7.616
  63.200         50.00	     7.746
  63.220         36.67	     6.633
  63.240         41.67	     7.071
  63.260         37.50	     6.708
  63.280         40.83	     7.000
  63.300         38.33	     6.782
  63.320         40.00	     6.928
  63.340         41.67	     7.071
  63.360         39.17	     6.856
  63.380         39.17	     6.856
  63.400         53.33	     8.000
  63.420         41.67	     7.071
  63.440         40.00	     6.928
  63.460         40.00	     6.928
  63.480         45.83	     7.416
  63.500         67.50	     9.000
  63.520         51.67	     7.874
  63.540         50.83	     7.810
  63.560         50.00	     7.746
  63.580         59.17	     8.426
  63.600         57.50	     8.307
  63.620         44.17	     7.280
  63.640         58.33	     8.367
  63.660         42.50	     7.141
  63.680         46.67	     7.483
  63.700         40.83	     7.000
  63.720         51.67	     7.874
  63.740         44.17	     7.280
  63.760         49.17	     7.681
  63.780         50.83	     7.810
  63.800         49.17	     7.681
  63.820         50.00	     7.746
  63.840         49.17	     7.681
  63.860         55.00	     8.124
  63.880         60.00	     8.485
  63.900         57.50	     8.307
  63.920         55.83	     8.185
  63.940         63.33	     8.718
  63.960         60.00	     8.485
  63.980         47.50	     7.550
  64.000         59.17	     8.426
  64.020         64.17	     8.775
  64.040         56.67	     8.246
  64.060         51.67	     7.874
  64.080         59.17	     8.426
  64.100         58.33	     8.367
  64.120         70.00	     9.165
  64.140         61.67	     8.602
  64.160         72.50	     9.327
  64.180         74.17	     9.434
  64.200         55.83	     8.185
  64.220         73.33	     9.381
  64.240         59.17	     8.426
  64.260         61.67	     8.602
  64.280         67.50	     9.000
  64.300         62.50	     8.660
  64.320         71.67	     9.274
  64.340         63.33	     8.718
  64.360         67.50	     9.000
  64.380         60.83	     8.544
  64.400         58.33	     8.367
  64.420         72.50	     9.327
  64.440         80.83	     9.849
  64.460         95.83	    10.724
  64.480         86.67	    10.198
  64.500         88.33	    10.296
  64.520         93.33	    10.583
  64.540         63.33	     8.718
  64.560         67.50	     9.000
  64.580         48.33	     7.616
  64.600         47.50	     7.550
  64.620         58.33	     8.367
  64.640         62.50	     8.660
  64.660         62.50	     8.660
  64.680         70.00	     9.165
  64.700         71.67	     9.274
  64.720         58.33	     8.367
  64.740         67.50	     9.000
  64.760         54.17	     8.062
  64.780         53.33	     8.000
  64.800         55.00	     8.124
  64.820         66.67	     8.944
  64.840         49.17	     7.681
  64.860         62.50	     8.660
  64.880         66.67	     8.944
  64.900         62.50	     8.660
  64.920         56.67	     8.246
  64.940         58.33	     8.367
  64.960         47.50	     7.550
  64.980         53.33	     8.000
  65.000         45.00	     7.348
