
Filename:
	C:\Program Files\Thermo Electron\WinXRD\Datafiles\F_HERMAN\GEO\GG_8_SFT.raw

File Created:
	October 12, 2020 - 05:25 PM

Specimen Id:
	GG8 SFT

Specimen Name:
	

Specimen Description:
	

Comment:
Scan Type: 2Theta Scan
Start Angle: 3 deg.
Stop Angle: 65 deg.
Num Points: 3101
Step Size: 0.02 deg.
Scan Rate: 1.000000
Scan Mode: Continuous
Wavelength: 1.540562
\Kalpha1: 1.540562	\Kalpha2: 1.544390	\Kbeta: 1.392218

Optics:
		Detector:
			 Type: Fixed Slits
		Tube: 
			 Type: Fixed Slits


Datas:
 Pos [deg]       Rate [CPS]      ESD [-]

Range 1 ---> Iteration 1
   3.000        438.33	    22.935
   3.020        472.50	    23.812
   3.040        443.33	    23.065
   3.060        411.67	    22.226
   3.080        420.00	    22.450
   3.100        414.17	    22.293
   3.120        395.00	    21.772
   3.140        416.67	    22.361
   3.160        390.00	    21.633
   3.180        415.83	    22.338
   3.200        410.83	    22.204
   3.220        389.17	    21.610
   3.240        430.00	    22.716
   3.260        410.00	    22.181
   3.280        410.00	    22.181
   3.300        354.17	    20.616
   3.320        392.50	    21.703
   3.340        375.83	    21.237
   3.360        403.33	    22.000
   3.380        391.67	    21.679
   3.400        375.00	    21.213
   3.420        375.00	    21.213
   3.440        370.83	    21.095
   3.460        351.67	    20.543
   3.480        342.50	    20.273
   3.500        383.33	    21.448
   3.520        380.83	    21.378
   3.540        385.83	    21.517
   3.560        357.50	    20.712
   3.580        355.83	    20.664
   3.600        347.50	    20.421
   3.620        361.67	    20.833
   3.640        329.17	    19.875
   3.660        336.67	    20.100
   3.680        323.33	    19.698
   3.700        328.33	    19.849
   3.720        345.00	    20.347
   3.740        351.67	    20.543
   3.760        338.33	    20.149
   3.780        284.17	    18.466
   3.800        347.50	    20.421
   3.820        345.00	    20.347
   3.840        317.50	    19.519
   3.860        348.33	    20.445
   3.880        323.33	    19.698
   3.900        330.00	    19.900
   3.920        342.50	    20.273
   3.940        313.33	    19.391
   3.960        305.00	    19.131
   3.980        366.67	    20.976
   4.000        340.00	    20.199
   4.020        305.00	    19.131
   4.040        321.67	    19.647
   4.060        311.67	    19.339
   4.080        274.17	    18.138
   4.100        302.50	    19.053
   4.120        295.00	    18.815
   4.140        305.00	    19.131
   4.160        288.33	    18.601
   4.180        313.33	    19.391
   4.200        293.33	    18.762
   4.220        299.17	    18.947
   4.240        284.17	    18.466
   4.260        305.83	    19.157
   4.280        278.33	    18.276
   4.300        284.17	    18.466
   4.320        275.00	    18.166
   4.340        272.50	    18.083
   4.360        290.83	    18.682
   4.380        291.67	    18.708
   4.400        295.83	    18.841
   4.420        258.33	    17.607
   4.440        255.83	    17.521
   4.460        282.50	    18.412
   4.480        266.67	    17.889
   4.500        262.50	    17.748
   4.520        248.33	    17.263
   4.540        265.00	    17.833
   4.560        274.17	    18.138
   4.580        253.33	    17.436
   4.600        262.50	    17.748
   4.620        262.50	    17.748
   4.640        254.17	    17.464
   4.660        255.83	    17.521
   4.680        264.17	    17.804
   4.700        245.00	    17.146
   4.720        241.67	    17.029
   4.740        235.00	    16.793
   4.760        247.50	    17.234
   4.780        257.50	    17.578
   4.800        250.00	    17.321
   4.820        231.67	    16.673
   4.840        245.83	    17.176
   4.860        219.17	    16.217
   4.880        238.33	    16.912
   4.900        237.50	    16.882
   4.920        235.00	    16.793
   4.940        240.83	    17.000
   4.960        210.00	    15.875
   4.980        240.83	    17.000
   5.000        224.17	    16.401
   5.020        252.50	    17.407
   5.040        246.67	    17.205
   5.060        238.33	    16.912
   5.080        224.17	    16.401
   5.100        213.33	    16.000
   5.120        216.67	    16.125
   5.140        245.00	    17.146
   5.160        231.67	    16.673
   5.180        233.33	    16.733
   5.200        235.00	    16.793
   5.220        225.00	    16.432
   5.240        235.00	    16.793
   5.260        225.83	    16.462
   5.280        228.33	    16.553
   5.300        229.17	    16.583
   5.320        243.33	    17.088
   5.340        231.67	    16.673
   5.360        210.00	    15.875
   5.380        219.17	    16.217
   5.400        209.17	    15.843
   5.420        206.67	    15.748
   5.440        222.50	    16.340
   5.460        228.33	    16.553
   5.480        205.83	    15.716
   5.500        205.83	    15.716
   5.520        207.50	    15.780
   5.540        227.50	    16.523
   5.560        212.50	    15.969
   5.580        205.83	    15.716
   5.600        191.67	    15.166
   5.620        205.83	    15.716
   5.640        240.83	    17.000
   5.660        215.83	    16.093
   5.680        209.17	    15.843
   5.700        230.83	    16.643
   5.720        219.17	    16.217
   5.740        216.67	    16.125
   5.760        218.33	    16.186
   5.780        211.67	    15.937
   5.800        232.50	    16.703
   5.820        226.67	    16.492
   5.840        245.83	    17.176
   5.860        259.17	    17.635
   5.880        260.00	    17.664
   5.900        247.50	    17.234
   5.920        278.33	    18.276
   5.940        278.33	    18.276
   5.960        266.67	    17.889
   5.980        262.50	    17.748
   6.000        272.50	    18.083
   6.020        295.83	    18.841
   6.040        289.17	    18.628
   6.060        265.83	    17.861
   6.080        314.17	    19.416
   6.100        325.00	    19.748
   6.120        284.17	    18.466
   6.140        303.33	    19.079
   6.160        356.67	    20.688
   6.180        340.00	    20.199
   6.200        362.50	    20.857
   6.220        380.83	    21.378
   6.240        337.50	    20.125
   6.260        300.00	    18.974
   6.280        286.67	    18.547
   6.300        234.17	    16.763
   6.320        217.50	    16.155
   6.340        242.50	    17.059
   6.360        212.50	    15.969
   6.380        201.67	    15.556
   6.400        195.83	    15.330
   6.420        185.00	    14.900
   6.440        228.33	    16.553
   6.460        181.67	    14.765
   6.480        232.50	    16.703
   6.500        220.00	    16.248
   6.520        195.83	    15.330
   6.540        192.50	    15.199
   6.560        186.67	    14.967
   6.580        195.00	    15.297
   6.600        178.33	    14.629
   6.620        199.17	    15.460
   6.640        204.17	    15.652
   6.660        193.33	    15.232
   6.680        176.67	    14.560
   6.700        186.67	    14.967
   6.720        195.00	    15.297
   6.740        180.83	    14.731
   6.760        188.33	    15.033
   6.780        182.50	    14.799
   6.800        200.00	    15.492
   6.820        182.50	    14.799
   6.840        186.67	    14.967
   6.860        171.67	    14.353
   6.880        179.17	    14.663
   6.900        184.17	    14.866
   6.920        198.33	    15.427
   6.940        184.17	    14.866
   6.960        159.17	    13.820
   6.980        198.33	    15.427
   7.000        194.17	    15.264
   7.020        195.83	    15.330
   7.040        177.50	    14.595
   7.060        162.50	    13.964
   7.080        181.67	    14.765
   7.100        170.00	    14.283
   7.120        180.83	    14.731
   7.140        170.83	    14.318
   7.160        151.67	    13.491
   7.180        167.50	    14.177
   7.200        189.17	    15.067
   7.220        162.50	    13.964
   7.240        167.50	    14.177
   7.260        157.50	    13.748
   7.280        165.83	    14.107
   7.300        165.00	    14.071
   7.320        190.83	    15.133
   7.340        167.50	    14.177
   7.360        167.50	    14.177
   7.380        150.83	    13.454
   7.400        160.83	    13.892
   7.420        170.00	    14.283
   7.440        155.00	    13.638
   7.460        174.17	    14.457
   7.480        160.00	    13.856
   7.500        155.00	    13.638
   7.520        156.67	    13.711
   7.540        158.33	    13.784
   7.560        180.83	    14.731
   7.580        159.17	    13.820
   7.600        171.67	    14.353
   7.620        161.67	    13.928
   7.640        160.00	    13.856
   7.660        155.00	    13.638
   7.680        167.50	    14.177
   7.700        166.67	    14.142
   7.720        155.83	    13.675
   7.740        163.33	    14.000
   7.760        148.33	    13.342
   7.780        167.50	    14.177
   7.800        161.67	    13.928
   7.820        136.67	    12.806
   7.840        161.67	    13.928
   7.860        173.33	    14.422
   7.880        172.50	    14.387
   7.900        162.50	    13.964
   7.920        153.33	    13.565
   7.940        143.33	    13.115
   7.960        174.17	    14.457
   7.980        163.33	    14.000
   8.000        160.00	    13.856
   8.020        166.67	    14.142
   8.040        160.00	    13.856
   8.060        150.83	    13.454
   8.080        161.67	    13.928
   8.100        157.50	    13.748
   8.120        158.33	    13.784
   8.140        171.67	    14.353
   8.160        186.67	    14.967
   8.180        173.33	    14.422
   8.200        187.50	    15.000
   8.220        196.67	    15.362
   8.240        166.67	    14.142
   8.260        194.17	    15.264
   8.280        215.00	    16.062
   8.300        206.67	    15.748
   8.320        218.33	    16.186
   8.340        189.17	    15.067
   8.360        210.83	    15.906
   8.380        205.83	    15.716
   8.400        199.17	    15.460
   8.420        205.83	    15.716
   8.440        219.17	    16.217
   8.460        240.83	    17.000
   8.480        247.50	    17.234
   8.500        275.83	    18.193
   8.520        244.17	    17.117
   8.540        275.00	    18.166
   8.560        285.00	    18.493
   8.580        297.50	    18.894
   8.600        320.00	    19.596
   8.620        313.33	    19.391
   8.640        357.50	    20.712
   8.660        381.67	    21.401
   8.680        450.00	    23.238
   8.700        433.33	    22.804
   8.720        493.33	    24.331
   8.740        533.33	    25.298
   8.760        572.50	    26.211
   8.780        695.00	    28.879
   8.800        805.00	    31.081
   8.820        908.33	    33.015
   8.840       1001.67	    34.670
   8.860        894.17	    32.757
   8.880        769.17	    30.381
   8.900        582.50	    26.439
   8.920        399.17	    21.886
   8.940        286.67	    18.547
   8.960        255.83	    17.521
   8.980        230.00	    16.613
   9.000        204.17	    15.652
   9.020        180.83	    14.731
   9.040        185.83	    14.933
   9.060        205.00	    15.684
   9.080        195.83	    15.330
   9.100        168.33	    14.213
   9.120        194.17	    15.264
   9.140        160.00	    13.856
   9.160        163.33	    14.000
   9.180        170.83	    14.318
   9.200        118.33	    11.916
   9.220        147.50	    13.304
   9.240        139.17	    12.923
   9.260        125.00	    12.247
   9.280        118.33	    11.916
   9.300        125.83	    12.288
   9.320        144.17	    13.153
   9.340        157.50	    13.748
   9.360        130.83	    12.530
   9.380        125.00	    12.247
   9.400        165.00	    14.071
   9.420        170.83	    14.318
   9.440        153.33	    13.565
   9.460        165.83	    14.107
   9.480        137.50	    12.845
   9.500        136.67	    12.806
   9.520        138.33	    12.884
   9.540        116.67	    11.832
   9.560        122.50	    12.124
   9.580        119.17	    11.958
   9.600        105.00	    11.225
   9.620        105.83	    11.269
   9.640        126.67	    12.329
   9.660        118.33	    11.916
   9.680        117.50	    11.874
   9.700        108.33	    11.402
   9.720        140.00	    12.961
   9.740        110.83	    11.533
   9.760        101.67	    11.045
   9.780        110.00	    11.489
   9.800        106.67	    11.314
   9.820         99.17	    10.909
   9.840        112.50	    11.619
   9.860        109.17	    11.446
   9.880        112.50	    11.619
   9.900         91.67	    10.488
   9.920         99.17	    10.909
   9.940         85.00	    10.100
   9.960         95.00	    10.677
   9.980        112.50	    11.619
  10.000         96.67	    10.770
  10.020        100.00	    10.954
  10.040        110.83	    11.533
  10.060         94.17	    10.630
  10.080         95.83	    10.724
  10.100        110.83	    11.533
  10.120        101.67	    11.045
  10.140         94.17	    10.630
  10.160         83.33	    10.000
  10.180        117.50	    11.874
  10.200         91.67	    10.488
  10.220         99.17	    10.909
  10.240        104.17	    11.180
  10.260         97.50	    10.817
  10.280        100.00	    10.954
  10.300        101.67	    11.045
  10.320        101.67	    11.045
  10.340        100.83	    11.000
  10.360        125.83	    12.288
  10.380        121.67	    12.083
  10.400        121.67	    12.083
  10.420        134.17	    12.689
  10.440        160.83	    13.892
  10.460        154.17	    13.601
  10.480        170.00	    14.283
  10.500        165.00	    14.071
  10.520        143.33	    13.115
  10.540        145.00	    13.191
  10.560        122.50	    12.124
  10.580        107.50	    11.358
  10.600         96.67	    10.770
  10.620        110.00	    11.489
  10.640        106.67	    11.314
  10.660         90.00	    10.392
  10.680         95.00	    10.677
  10.700        113.33	    11.662
  10.720         86.67	    10.198
  10.740         77.50	     9.644
  10.760         96.67	    10.770
  10.780        102.50	    11.091
  10.800         99.17	    10.909
  10.820         99.17	    10.909
  10.840         82.50	     9.950
  10.860         87.50	    10.247
  10.880         81.67	     9.899
  10.900         84.17	    10.050
  10.920         98.33	    10.863
  10.940        110.83	    11.533
  10.960         92.50	    10.536
  10.980         92.50	    10.536
  11.000         94.17	    10.630
  11.020         90.83	    10.440
  11.040        100.83	    11.000
  11.060         84.17	    10.050
  11.080         93.33	    10.583
  11.100         82.50	     9.950
  11.120         83.33	    10.000
  11.140         86.67	    10.198
  11.160         81.67	     9.899
  11.180         99.17	    10.909
  11.200        102.50	    11.091
  11.220         99.17	    10.909
  11.240        105.83	    11.269
  11.260         91.67	    10.488
  11.280         87.50	    10.247
  11.300         90.83	    10.440
  11.320         80.00	     9.798
  11.340         85.00	    10.100
  11.360         90.83	    10.440
  11.380         91.67	    10.488
  11.400         81.67	     9.899
  11.420         90.00	    10.392
  11.440        108.33	    11.402
  11.460         83.33	    10.000
  11.480        108.33	    11.402
  11.500        103.33	    11.136
  11.520         84.17	    10.050
  11.540         95.00	    10.677
  11.560         93.33	    10.583
  11.580         95.00	    10.677
  11.600         95.83	    10.724
  11.620         95.83	    10.724
  11.640         97.50	    10.817
  11.660         97.50	    10.817
  11.680         88.33	    10.296
  11.700         92.50	    10.536
  11.720        101.67	    11.045
  11.740        105.83	    11.269
  11.760        112.50	    11.619
  11.780        100.83	    11.000
  11.800        104.17	    11.180
  11.820        106.67	    11.314
  11.840         90.83	    10.440
  11.860        124.17	    12.207
  11.880        115.83	    11.790
  11.900         85.83	    10.149
  11.920        121.67	    12.083
  11.940        109.17	    11.446
  11.960        112.50	    11.619
  11.980        128.33	    12.410
  12.000        136.67	    12.806
  12.020        158.33	    13.784
  12.040        165.00	    14.071
  12.060        165.00	    14.071
  12.080        219.17	    16.217
  12.100        294.17	    18.788
  12.120        365.00	    20.928
  12.140        445.00	    23.108
  12.160        512.50	    24.799
  12.180        560.00	    25.923
  12.200        509.17	    24.718
  12.220        435.00	    22.847
  12.240        310.00	    19.287
  12.260        285.83	    18.520
  12.280        251.67	    17.378
  12.300        266.67	    17.889
  12.320        286.67	    18.547
  12.340        300.00	    18.974
  12.360        339.17	    20.174
  12.380        379.17	    21.331
  12.400        445.83	    23.130
  12.420        559.17	    25.904
  12.440        674.17	    28.443
  12.460        700.83	    29.000
  12.480        734.17	    29.682
  12.500        628.33	    27.459
  12.520        442.50	    23.043
  12.540        310.00	    19.287
  12.560        207.50	    15.780
  12.580        150.83	    13.454
  12.600        155.00	    13.638
  12.620        127.50	    12.369
  12.640        103.33	    11.136
  12.660        119.17	    11.958
  12.680        100.83	    11.000
  12.700        103.33	    11.136
  12.720        110.83	    11.533
  12.740         86.67	    10.198
  12.760         89.17	    10.344
  12.780         93.33	    10.583
  12.800         86.67	    10.198
  12.820         90.00	    10.392
  12.840         94.17	    10.630
  12.860         94.17	    10.630
  12.880        101.67	    11.045
  12.900         87.50	    10.247
  12.920         89.17	    10.344
  12.940         88.33	    10.296
  12.960         82.50	     9.950
  12.980         76.67	     9.592
  13.000         80.00	     9.798
  13.020         73.33	     9.381
  13.040         85.00	    10.100
  13.060         91.67	    10.488
  13.080         75.00	     9.487
  13.100         85.83	    10.149
  13.120         65.83	     8.888
  13.140         60.00	     8.485
  13.160         60.83	     8.544
  13.180         90.83	    10.440
  13.200         75.00	     9.487
  13.220         60.00	     8.485
  13.240         81.67	     9.899
  13.260         69.17	     9.110
  13.280         79.17	     9.747
  13.300         75.00	     9.487
  13.320         75.00	     9.487
  13.340         75.83	     9.539
  13.360         75.83	     9.539
  13.380         76.67	     9.592
  13.400         72.50	     9.327
  13.420         67.50	     9.000
  13.440         64.17	     8.775
  13.460         57.50	     8.307
  13.480         64.17	     8.775
  13.500         79.17	     9.747
  13.520         70.00	     9.165
  13.540         83.33	    10.000
  13.560         72.50	     9.327
  13.580         78.33	     9.695
  13.600         75.83	     9.539
  13.620         70.00	     9.165
  13.640         73.33	     9.381
  13.660         66.67	     8.944
  13.680         69.17	     9.110
  13.700         82.50	     9.950
  13.720         73.33	     9.381
  13.740         80.00	     9.798
  13.760         88.33	    10.296
  13.780         93.33	    10.583
  13.800        100.00	    10.954
  13.820        121.67	    12.083
  13.840         98.33	    10.863
  13.860        110.00	    11.489
  13.880         85.00	    10.100
  13.900         83.33	    10.000
  13.920         73.33	     9.381
  13.940         91.67	    10.488
  13.960         82.50	     9.950
  13.980         79.17	     9.747
  14.000         70.00	     9.165
  14.020         65.00	     8.832
  14.040         70.83	     9.220
  14.060         65.83	     8.888
  14.080         57.50	     8.307
  14.100         57.50	     8.307
  14.120         65.00	     8.832
  14.140         65.83	     8.888
  14.160         50.00	     7.746
  14.180         70.83	     9.220
  14.200         79.17	     9.747
  14.220         55.00	     8.124
  14.240         56.67	     8.246
  14.260         51.67	     7.874
  14.280         70.83	     9.220
  14.300         70.00	     9.165
  14.320         60.83	     8.544
  14.340         61.67	     8.602
  14.360         52.50	     7.937
  14.380         69.17	     9.110
  14.400         74.17	     9.434
  14.420         75.83	     9.539
  14.440         66.67	     8.944
  14.460         55.00	     8.124
  14.480         50.00	     7.746
  14.500         44.17	     7.280
  14.520         63.33	     8.718
  14.540         62.50	     8.660
  14.560         53.33	     8.000
  14.580         66.67	     8.944
  14.600         56.67	     8.246
  14.620         54.17	     8.062
  14.640         67.50	     9.000
  14.660         56.67	     8.246
  14.680         60.83	     8.544
  14.700         51.67	     7.874
  14.720         65.00	     8.832
  14.740         60.83	     8.544
  14.760         56.67	     8.246
  14.780         51.67	     7.874
  14.800         58.33	     8.367
  14.820         48.33	     7.616
  14.840         80.83	     9.849
  14.860         65.83	     8.888
  14.880         63.33	     8.718
  14.900         61.67	     8.602
  14.920         63.33	     8.718
  14.940         60.83	     8.544
  14.960         75.00	     9.487
  14.980         71.67	     9.274
  15.000         83.33	    10.000
  15.020         61.67	     8.602
  15.040         59.17	     8.426
  15.060         60.00	     8.485
  15.080         50.83	     7.810
  15.100         65.00	     8.832
  15.120         60.00	     8.485
  15.140         68.33	     9.055
  15.160         65.00	     8.832
  15.180         55.00	     8.124
  15.200         67.50	     9.000
  15.220         61.67	     8.602
  15.240         52.50	     7.937
  15.260         60.83	     8.544
  15.280         49.17	     7.681
  15.300         61.67	     8.602
  15.320         60.00	     8.485
  15.340         64.17	     8.775
  15.360         53.33	     8.000
  15.380         60.00	     8.485
  15.400         50.83	     7.810
  15.420         70.00	     9.165
  15.440         59.17	     8.426
  15.460         65.00	     8.832
  15.480         50.83	     7.810
  15.500         49.17	     7.681
  15.520         61.67	     8.602
  15.540         60.83	     8.544
  15.560         69.17	     9.110
  15.580         64.17	     8.775
  15.600         68.33	     9.055
  15.620         50.83	     7.810
  15.640         50.83	     7.810
  15.660         61.67	     8.602
  15.680         67.50	     9.000
  15.700         45.00	     7.348
  15.720         63.33	     8.718
  15.740         75.83	     9.539
  15.760         51.67	     7.874
  15.780         66.67	     8.944
  15.800         68.33	     9.055
  15.820         57.50	     8.307
  15.840         52.50	     7.937
  15.860         55.00	     8.124
  15.880         55.83	     8.185
  15.900         64.17	     8.775
  15.920         62.50	     8.660
  15.940         59.17	     8.426
  15.960         70.83	     9.220
  15.980         70.00	     9.165
  16.000         54.17	     8.062
  16.020         58.33	     8.367
  16.040         67.50	     9.000
  16.060         63.33	     8.718
  16.080         61.67	     8.602
  16.100         48.33	     7.616
  16.120         55.00	     8.124
  16.140         65.83	     8.888
  16.160         49.17	     7.681
  16.180         54.17	     8.062
  16.200         55.00	     8.124
  16.220         37.50	     6.708
  16.240         53.33	     8.000
  16.260         58.33	     8.367
  16.280         65.00	     8.832
  16.300         59.17	     8.426
  16.320         61.67	     8.602
  16.340         45.83	     7.416
  16.360         54.17	     8.062
  16.380         59.17	     8.426
  16.400         48.33	     7.616
  16.420         44.17	     7.280
  16.440         48.33	     7.616
  16.460         45.83	     7.416
  16.480         38.33	     6.782
  16.500         53.33	     8.000
  16.520         47.50	     7.550
  16.540         47.50	     7.550
  16.560         54.17	     8.062
  16.580         55.00	     8.124
  16.600         56.67	     8.246
  16.620         51.67	     7.874
  16.640         53.33	     8.000
  16.660         65.00	     8.832
  16.680         73.33	     9.381
  16.700         44.17	     7.280
  16.720         50.00	     7.746
  16.740         47.50	     7.550
  16.760         39.17	     6.856
  16.780         56.67	     8.246
  16.800         44.17	     7.280
  16.820         61.67	     8.602
  16.840         55.83	     8.185
  16.860         58.33	     8.367
  16.880         69.17	     9.110
  16.900         51.67	     7.874
  16.920         54.17	     8.062
  16.940         56.67	     8.246
  16.960         62.50	     8.660
  16.980         50.00	     7.746
  17.000         74.17	     9.434
  17.020         66.67	     8.944
  17.040         60.83	     8.544
  17.060         62.50	     8.660
  17.080         66.67	     8.944
  17.100         55.83	     8.185
  17.120         49.17	     7.681
  17.140         51.67	     7.874
  17.160         55.00	     8.124
  17.180         58.33	     8.367
  17.200         58.33	     8.367
  17.220         49.17	     7.681
  17.240         60.00	     8.485
  17.260         62.50	     8.660
  17.280         46.67	     7.483
  17.300         75.83	     9.539
  17.320         49.17	     7.681
  17.340         48.33	     7.616
  17.360         64.17	     8.775
  17.380         62.50	     8.660
  17.400         59.17	     8.426
  17.420         60.00	     8.485
  17.440         54.17	     8.062
  17.460         68.33	     9.055
  17.480         65.00	     8.832
  17.500         53.33	     8.000
  17.520         74.17	     9.434
  17.540         70.00	     9.165
  17.560         77.50	     9.644
  17.580         85.00	    10.100
  17.600         88.33	    10.296
  17.620         93.33	    10.583
  17.640        100.83	    11.000
  17.660        150.00	    13.416
  17.680        179.17	    14.663
  17.700        242.50	    17.059
  17.720        279.17	    18.303
  17.740        364.17	    20.905
  17.760        345.83	    20.372
  17.780        407.50	    22.113
  17.800        326.67	    19.799
  17.820        280.83	    18.358
  17.840        226.67	    16.492
  17.860        178.33	    14.629
  17.880        160.83	    13.892
  17.900        105.83	    11.269
  17.920        101.67	    11.045
  17.940         95.00	    10.677
  17.960         63.33	     8.718
  17.980         76.67	     9.592
  18.000         75.83	     9.539
  18.020         72.50	     9.327
  18.040         74.17	     9.434
  18.060         63.33	     8.718
  18.080         70.83	     9.220
  18.100         67.50	     9.000
  18.120         71.67	     9.274
  18.140         54.17	     8.062
  18.160         59.17	     8.426
  18.180         65.83	     8.888
  18.200         65.00	     8.832
  18.220         63.33	     8.718
  18.240         74.17	     9.434
  18.260         77.50	     9.644
  18.280         68.33	     9.055
  18.300         66.67	     8.944
  18.320         66.67	     8.944
  18.340         60.00	     8.485
  18.360         73.33	     9.381
  18.380         82.50	     9.950
  18.400         76.67	     9.592
  18.420         72.50	     9.327
  18.440         83.33	    10.000
  18.460         74.17	     9.434
  18.480         74.17	     9.434
  18.500         75.83	     9.539
  18.520         89.17	    10.344
  18.540         89.17	    10.344
  18.560        101.67	    11.045
  18.580        110.83	    11.533
  18.600        101.67	    11.045
  18.620        112.50	    11.619
  18.640        110.00	    11.489
  18.660        145.00	    13.191
  18.680        160.00	    13.856
  18.700        178.33	    14.629
  18.720        266.67	    17.889
  18.740        244.17	    17.117
  18.760        263.33	    17.776
  18.780        273.33	    18.111
  18.800        219.17	    16.217
  18.820        152.50	    13.528
  18.840        137.50	    12.845
  18.860        120.83	    12.042
  18.880        105.00	    11.225
  18.900         79.17	     9.747
  18.920         88.33	    10.296
  18.940         66.67	     8.944
  18.960         80.83	     9.849
  18.980         67.50	     9.000
  19.000         57.50	     8.307
  19.020         70.00	     9.165
  19.040         60.00	     8.485
  19.060         70.83	     9.220
  19.080         65.83	     8.888
  19.100         60.83	     8.544
  19.120         58.33	     8.367
  19.140         75.83	     9.539
  19.160         60.00	     8.485
  19.180         81.67	     9.899
  19.200         75.83	     9.539
  19.220         73.33	     9.381
  19.240         69.17	     9.110
  19.260         65.83	     8.888
  19.280         80.00	     9.798
  19.300         78.33	     9.695
  19.320         61.67	     8.602
  19.340         67.50	     9.000
  19.360         68.33	     9.055
  19.380         57.50	     8.307
  19.400         63.33	     8.718
  19.420         63.33	     8.718
  19.440         59.17	     8.426
  19.460         63.33	     8.718
  19.480         63.33	     8.718
  19.500         60.00	     8.485
  19.520         64.17	     8.775
  19.540         75.00	     9.487
  19.560         91.67	    10.488
  19.580         76.67	     9.592
  19.600         79.17	     9.747
  19.620         95.00	    10.677
  19.640        109.17	    11.446
  19.660        101.67	    11.045
  19.680        107.50	    11.358
  19.700        131.67	    12.570
  19.720        107.50	    11.358
  19.740        140.00	    12.961
  19.760        140.00	    12.961
  19.780        163.33	    14.000
  19.800        145.00	    13.191
  19.820        144.17	    13.153
  19.840        141.67	    13.038
  19.860        140.83	    13.000
  19.880        134.17	    12.689
  19.900        117.50	    11.874
  19.920        105.00	    11.225
  19.940         94.17	    10.630
  19.960         80.83	     9.849
  19.980         64.17	     8.775
  20.000         74.17	     9.434
  20.020         72.50	     9.327
  20.040         60.00	     8.485
  20.060         59.17	     8.426
  20.080         85.83	    10.149
  20.100         70.00	     9.165
  20.120         70.83	     9.220
  20.140         75.00	     9.487
  20.160         76.67	     9.592
  20.180         61.67	     8.602
  20.200         54.17	     8.062
  20.220         53.33	     8.000
  20.240         67.50	     9.000
  20.260         63.33	     8.718
  20.280         48.33	     7.616
  20.300         52.50	     7.937
  20.320         60.83	     8.544
  20.340         50.00	     7.746
  20.360         71.67	     9.274
  20.380         44.17	     7.280
  20.400         68.33	     9.055
  20.420         60.00	     8.485
  20.440         55.00	     8.124
  20.460         65.83	     8.888
  20.480         65.83	     8.888
  20.500         73.33	     9.381
  20.520         73.33	     9.381
  20.540         70.00	     9.165
  20.560         69.17	     9.110
  20.580         59.17	     8.426
  20.600         72.50	     9.327
  20.620         74.17	     9.434
  20.640         60.83	     8.544
  20.660         76.67	     9.592
  20.680         70.00	     9.165
  20.700         84.17	    10.050
  20.720         87.50	    10.247
  20.740        129.17	    12.450
  20.760        180.00	    14.697
  20.780        283.33	    18.439
  20.800        331.67	    19.950
  20.820        339.17	    20.174
  20.840        298.33	    18.921
  20.860        274.17	    18.138
  20.880        195.83	    15.330
  20.900        186.67	    14.967
  20.920        121.67	    12.083
  20.940        132.50	    12.610
  20.960        165.00	    14.071
  20.980        137.50	    12.845
  21.000        131.67	    12.570
  21.020        113.33	    11.662
  21.040         78.33	     9.695
  21.060         77.50	     9.644
  21.080         70.83	     9.220
  21.100         61.67	     8.602
  21.120         51.67	     7.874
  21.140         83.33	    10.000
  21.160         62.50	     8.660
  21.180         60.83	     8.544
  21.200         54.17	     8.062
  21.220         74.17	     9.434
  21.240         62.50	     8.660
  21.260         55.00	     8.124
  21.280         66.67	     8.944
  21.300         59.17	     8.426
  21.320         65.83	     8.888
  21.340         65.00	     8.832
  21.360         73.33	     9.381
  21.380         61.67	     8.602
  21.400         58.33	     8.367
  21.420         62.50	     8.660
  21.440         61.67	     8.602
  21.460         68.33	     9.055
  21.480         71.67	     9.274
  21.500         65.83	     8.888
  21.520         88.33	    10.296
  21.540         80.00	     9.798
  21.560         83.33	    10.000
  21.580         78.33	     9.695
  21.600         87.50	    10.247
  21.620         71.67	     9.274
  21.640         71.67	     9.274
  21.660         65.83	     8.888
  21.680         70.00	     9.165
  21.700         68.33	     9.055
  21.720         59.17	     8.426
  21.740         59.17	     8.426
  21.760         70.00	     9.165
  21.780         58.33	     8.367
  21.800         55.83	     8.185
  21.820         71.67	     9.274
  21.840         75.00	     9.487
  21.860         68.33	     9.055
  21.880         78.33	     9.695
  21.900         95.83	    10.724
  21.920        112.50	    11.619
  21.940        195.83	    15.330
  21.960        255.83	    17.521
  21.980        291.67	    18.708
  22.000        298.33	    18.921
  22.020        315.83	    19.468
  22.040        261.67	    17.720
  22.060        213.33	    16.000
  22.080        153.33	    13.565
  22.100        113.33	    11.662
  22.120         80.00	     9.798
  22.140         72.50	     9.327
  22.160         76.67	     9.592
  22.180         67.50	     9.000
  22.200         69.17	     9.110
  22.220         65.00	     8.832
  22.240         63.33	     8.718
  22.260         66.67	     8.944
  22.280         68.33	     9.055
  22.300         55.83	     8.185
  22.320         76.67	     9.592
  22.340         63.33	     8.718
  22.360         75.83	     9.539
  22.380         54.17	     8.062
  22.400         63.33	     8.718
  22.420         69.17	     9.110
  22.440         72.50	     9.327
  22.460         67.50	     9.000
  22.480         72.50	     9.327
  22.500         80.00	     9.798
  22.520         73.33	     9.381
  22.540         61.67	     8.602
  22.560         60.83	     8.544
  22.580         57.50	     8.307
  22.600         53.33	     8.000
  22.620         65.00	     8.832
  22.640         60.00	     8.485
  22.660         68.33	     9.055
  22.680         67.50	     9.000
  22.700         68.33	     9.055
  22.720         60.00	     8.485
  22.740         59.17	     8.426
  22.760         88.33	    10.296
  22.780         82.50	     9.950
  22.800        106.67	    11.314
  22.820        118.33	    11.916
  22.840        131.67	    12.570
  22.860        134.17	    12.689
  22.880        133.33	    12.649
  22.900        140.00	    12.961
  22.920        125.83	    12.288
  22.940        119.17	    11.958
  22.960        131.67	    12.570
  22.980        123.33	    12.166
  23.000        132.50	    12.610
  23.020        130.00	    12.490
  23.040        115.83	    11.790
  23.060         95.83	    10.724
  23.080        102.50	    11.091
  23.100         80.83	     9.849
  23.120         83.33	    10.000
  23.140         68.33	     9.055
  23.160         68.33	     9.055
  23.180         80.00	     9.798
  23.200         64.17	     8.775
  23.220         45.83	     7.416
  23.240         75.00	     9.487
  23.260         58.33	     8.367
  23.280         66.67	     8.944
  23.300         71.67	     9.274
  23.320         77.50	     9.644
  23.340         64.17	     8.775
  23.360         64.17	     8.775
  23.380         80.00	     9.798
  23.400         89.17	    10.344
  23.420        125.00	    12.247
  23.440        116.67	    11.832
  23.460        145.00	    13.191
  23.480        176.67	    14.560
  23.500        193.33	    15.232
  23.520        244.17	    17.117
  23.540        220.00	    16.248
  23.560        244.17	    17.117
  23.580        225.83	    16.462
  23.600        178.33	    14.629
  23.620        150.83	    13.454
  23.640        145.83	    13.229
  23.660        150.00	    13.416
  23.680        110.00	    11.489
  23.700        114.17	    11.705
  23.720        127.50	    12.369
  23.740        127.50	    12.369
  23.760        133.33	    12.649
  23.780        152.50	    13.528
  23.800        131.67	    12.570
  23.820        124.17	    12.207
  23.840        131.67	    12.570
  23.860        127.50	    12.369
  23.880         90.00	    10.392
  23.900         95.83	    10.724
  23.920         85.83	    10.149
  23.940        105.00	    11.225
  23.960         92.50	    10.536
  23.980        104.17	    11.180
  24.000        106.67	    11.314
  24.020        117.50	    11.874
  24.040        115.83	    11.790
  24.060        147.50	    13.304
  24.080        135.83	    12.767
  24.100        145.00	    13.191
  24.120        147.50	    13.304
  24.140        150.00	    13.416
  24.160        137.50	    12.845
  24.180        158.33	    13.784
  24.200        172.50	    14.387
  24.220        190.00	    15.100
  24.240        187.50	    15.000
  24.260        176.67	    14.560
  24.280        160.83	    13.892
  24.300        169.17	    14.248
  24.320        140.00	    12.961
  24.340        154.17	    13.601
  24.360        124.17	    12.207
  24.380        113.33	    11.662
  24.400        100.00	    10.954
  24.420        123.33	    12.166
  24.440        123.33	    12.166
  24.460        131.67	    12.570
  24.480        158.33	    13.784
  24.500        161.67	    13.928
  24.520        222.50	    16.340
  24.540        275.83	    18.193
  24.560        297.50	    18.894
  24.580        361.67	    20.833
  24.600        369.17	    21.048
  24.620        358.33	    20.736
  24.640        355.00	    20.640
  24.660        340.00	    20.199
  24.680        319.17	    19.570
  24.700        302.50	    19.053
  24.720        255.83	    17.521
  24.740        241.67	    17.029
  24.760        177.50	    14.595
  24.780        174.17	    14.457
  24.800        147.50	    13.304
  24.820        155.83	    13.675
  24.840        150.83	    13.454
  24.860        148.33	    13.342
  24.880        160.00	    13.856
  24.900        153.33	    13.565
  24.920        165.83	    14.107
  24.940        150.83	    13.454
  24.960        177.50	    14.595
  24.980        186.67	    14.967
  25.000        219.17	    16.217
  25.020        245.00	    17.146
  25.040        296.67	    18.868
  25.060        347.50	    20.421
  25.080        402.50	    21.977
  25.100        500.83	    24.515
  25.120        585.00	    26.495
  25.140        560.83	    25.942
  25.160        477.50	    23.937
  25.180        432.50	    22.782
  25.200        376.67	    21.260
  25.220        292.50	    18.735
  25.240        256.67	    17.550
  25.260        187.50	    15.000
  25.280        166.67	    14.142
  25.300        165.83	    14.107
  25.320        159.17	    13.820
  25.340        173.33	    14.422
  25.360        175.00	    14.491
  25.380        218.33	    16.186
  25.400        190.00	    15.100
  25.420        225.00	    16.432
  25.440        238.33	    16.912
  25.460        220.00	    16.248
  25.480        269.17	    17.972
  25.500        274.17	    18.138
  25.520        215.83	    16.093
  25.540        225.00	    16.432
  25.560        206.67	    15.748
  25.580        198.33	    15.427
  25.600        195.83	    15.330
  25.620        180.83	    14.731
  25.640        165.83	    14.107
  25.660        140.83	    13.000
  25.680        150.83	    13.454
  25.700        125.83	    12.288
  25.720        123.33	    12.166
  25.740        119.17	    11.958
  25.760        109.17	    11.446
  25.780        102.50	    11.091
  25.800         99.17	    10.909
  25.820         95.83	    10.724
  25.840        112.50	    11.619
  25.860        110.00	    11.489
  25.880        108.33	    11.402
  25.900        121.67	    12.083
  25.920         91.67	    10.488
  25.940        105.83	    11.269
  25.960         95.83	    10.724
  25.980         95.00	    10.677
  26.000        106.67	    11.314
  26.020        116.67	    11.832
  26.040        115.83	    11.790
  26.060        134.17	    12.689
  26.080        118.33	    11.916
  26.100        104.17	    11.180
  26.120        133.33	    12.649
  26.140        135.83	    12.767
  26.160        120.83	    12.042
  26.180        140.83	    13.000
  26.200        121.67	    12.083
  26.220        141.67	    13.038
  26.240        168.33	    14.213
  26.260        204.17	    15.652
  26.280        191.67	    15.166
  26.300        203.33	    15.620
  26.320        200.83	    15.524
  26.340        271.67	    18.055
  26.360        298.33	    18.921
  26.380        310.83	    19.313
  26.400        298.33	    18.921
  26.420        317.50	    19.519
  26.440        337.50	    20.125
  26.460        322.50	    19.672
  26.480        343.33	    20.298
  26.500        405.83	    22.068
  26.520        490.83	    24.269
  26.540        676.67	    28.496
  26.560       1044.17	    35.398
  26.580       1392.50	    40.878
  26.600       1658.33	    44.609
  26.620       1434.17	    41.485
  26.640       1246.67	    38.678
  26.660       1107.50	    36.455
  26.680        992.50	    34.511
  26.700        828.33	    31.528
  26.720        670.83	    28.373
  26.740        668.33	    28.320
  26.760        750.00	    30.000
  26.780        886.67	    32.619
  26.800        877.50	    32.450
  26.820       1021.67	    35.014
  26.840        940.00	    33.586
  26.860        909.17	    33.030
  26.880        743.33	    29.866
  26.900        614.17	    27.148
  26.920        495.83	    24.393
  26.940        398.33	    21.863
  26.960        317.50	    19.519
  26.980        296.67	    18.868
  27.000        206.67	    15.748
  27.020        214.17	    16.031
  27.040        189.17	    15.067
  27.060        176.67	    14.560
  27.080        147.50	    13.304
  27.100        135.83	    12.767
  27.120        155.00	    13.638
  27.140        124.17	    12.207
  27.160        145.00	    13.191
  27.180        130.83	    12.530
  27.200        120.00	    12.000
  27.220        108.33	    11.402
  27.240        125.83	    12.288
  27.260        109.17	    11.446
  27.280        127.50	    12.369
  27.300        120.00	    12.000
  27.320        114.17	    11.705
  27.340        121.67	    12.083
  27.360        159.17	    13.820
  27.380        146.67	    13.266
  27.400        191.67	    15.166
  27.420        209.17	    15.843
  27.440        216.67	    16.125
  27.460        273.33	    18.111
  27.480        285.83	    18.520
  27.500        271.67	    18.055
  27.520        199.17	    15.460
  27.540        213.33	    16.000
  27.560        216.67	    16.125
  27.580        173.33	    14.422
  27.600        165.00	    14.071
  27.620        184.17	    14.866
  27.640        227.50	    16.523
  27.660        306.67	    19.183
  27.680        358.33	    20.736
  27.700        392.50	    21.703
  27.720        394.17	    21.749
  27.740        384.17	    21.471
  27.760        408.33	    22.136
  27.780        433.33	    22.804
  27.800        459.17	    23.473
  27.820        538.33	    25.417
  27.840        536.67	    25.377
  27.860        633.33	    27.568
  27.880        640.00	    27.713
  27.900        626.67	    27.423
  27.920        621.67	    27.313
  27.940        515.00	    24.860
  27.960        455.00	    23.367
  27.980        380.00	    21.354
  28.000        267.50	    17.916
  28.020        261.67	    17.720
  28.040        204.17	    15.652
  28.060        189.17	    15.067
  28.080        227.50	    16.523
  28.100        185.00	    14.900
  28.120        190.83	    15.133
  28.140        150.83	    13.454
  28.160        166.67	    14.142
  28.180        153.33	    13.565
  28.200        172.50	    14.387
  28.220        186.67	    14.967
  28.240        204.17	    15.652
  28.260        188.33	    15.033
  28.280        217.50	    16.155
  28.300        162.50	    13.964
  28.320        144.17	    13.153
  28.340        135.83	    12.767
  28.360        132.50	    12.610
  28.380        113.33	    11.662
  28.400        117.50	    11.874
  28.420         79.17	     9.747
  28.440         94.17	    10.630
  28.460        110.83	    11.533
  28.480        125.00	    12.247
  28.500        156.67	    13.711
  28.520        165.83	    14.107
  28.540        165.00	    14.071
  28.560        172.50	    14.387
  28.580        183.33	    14.832
  28.600        164.17	    14.036
  28.620        161.67	    13.928
  28.640        162.50	    13.964
  28.660        154.17	    13.601
  28.680        143.33	    13.115
  28.700        145.83	    13.229
  28.720        120.00	    12.000
  28.740        118.33	    11.916
  28.760        135.00	    12.728
  28.780         98.33	    10.863
  28.800        109.17	    11.446
  28.820        103.33	    11.136
  28.840        103.33	    11.136
  28.860         80.83	     9.849
  28.880         75.00	     9.487
  28.900         71.67	     9.274
  28.920         75.83	     9.539
  28.940         69.17	     9.110
  28.960         52.50	     7.937
  28.980         80.00	     9.798
  29.000         63.33	     8.718
  29.020         66.67	     8.944
  29.040         81.67	     9.899
  29.060         61.67	     8.602
  29.080         64.17	     8.775
  29.100         69.17	     9.110
  29.120         58.33	     8.367
  29.140         70.83	     9.220
  29.160         74.17	     9.434
  29.180         55.00	     8.124
  29.200         66.67	     8.944
  29.220         57.50	     8.307
  29.240         67.50	     9.000
  29.260         55.83	     8.185
  29.280         55.00	     8.124
  29.300         54.17	     8.062
  29.320         59.17	     8.426
  29.340         65.83	     8.888
  29.360         53.33	     8.000
  29.380         60.00	     8.485
  29.400         56.67	     8.246
  29.420         60.00	     8.485
  29.440         70.83	     9.220
  29.460         63.33	     8.718
  29.480         70.83	     9.220
  29.500         71.67	     9.274
  29.520         73.33	     9.381
  29.540         59.17	     8.426
  29.560         70.83	     9.220
  29.580         85.83	    10.149
  29.600         82.50	     9.950
  29.620         82.50	     9.950
  29.640         85.83	    10.149
  29.660         90.00	    10.392
  29.680        110.00	    11.489
  29.700        125.83	    12.288
  29.720        125.83	    12.288
  29.740        159.17	    13.820
  29.760        187.50	    15.000
  29.780        193.33	    15.232
  29.800        217.50	    16.155
  29.820        257.50	    17.578
  29.840        233.33	    16.733
  29.860        232.50	    16.703
  29.880        245.00	    17.146
  29.900        212.50	    15.969
  29.920        213.33	    16.000
  29.940        172.50	    14.387
  29.960        156.67	    13.711
  29.980        130.83	    12.530
  30.000        130.83	    12.530
  30.020        130.00	    12.490
  30.040        133.33	    12.649
  30.060        127.50	    12.369
  30.080        123.33	    12.166
  30.100        109.17	    11.446
  30.120        122.50	    12.124
  30.140        106.67	    11.314
  30.160        125.83	    12.288
  30.180        108.33	    11.402
  30.200        117.50	    11.874
  30.220        103.33	    11.136
  30.240         95.83	    10.724
  30.260        121.67	    12.083
  30.280        104.17	    11.180
  30.300        134.17	    12.689
  30.320        115.83	    11.790
  30.340        124.17	    12.207
  30.360        148.33	    13.342
  30.380        140.00	    12.961
  30.400        135.83	    12.767
  30.420        125.83	    12.288
  30.440        166.67	    14.142
  30.460        141.67	    13.038
  30.480        145.00	    13.191
  30.500        119.17	    11.958
  30.520        107.50	    11.358
  30.540         99.17	    10.909
  30.560        113.33	    11.662
  30.580         66.67	     8.944
  30.600         80.00	     9.798
  30.620         70.83	     9.220
  30.640         74.17	     9.434
  30.660         94.17	    10.630
  30.680         86.67	    10.198
  30.700         81.67	     9.899
  30.720         86.67	    10.198
  30.740         84.17	    10.050
  30.760         85.00	    10.100
  30.780         91.67	    10.488
  30.800         88.33	    10.296
  30.820        108.33	    11.402
  30.840         90.00	    10.392
  30.860         92.50	    10.536
  30.880         84.17	    10.050
  30.900         98.33	    10.863
  30.920         97.50	    10.817
  30.940         94.17	    10.630
  30.960        101.67	    11.045
  30.980        105.83	    11.269
  31.000        115.00	    11.747
  31.020        130.00	    12.490
  31.040        142.50	    13.077
  31.060        162.50	    13.964
  31.080        135.83	    12.767
  31.100        123.33	    12.166
  31.120        150.00	    13.416
  31.140        156.67	    13.711
  31.160        191.67	    15.166
  31.180        206.67	    15.748
  31.200        204.17	    15.652
  31.220        205.00	    15.684
  31.240        212.50	    15.969
  31.260        204.17	    15.652
  31.280        158.33	    13.784
  31.300        160.83	    13.892
  31.320        155.00	    13.638
  31.340        117.50	    11.874
  31.360        145.00	    13.191
  31.380        130.00	    12.490
  31.400        126.67	    12.329
  31.420        110.83	    11.533
  31.440        115.83	    11.790
  31.460        115.00	    11.747
  31.480         99.17	    10.909
  31.500        101.67	    11.045
  31.520        122.50	    12.124
  31.540        148.33	    13.342
  31.560        134.17	    12.689
  31.580        125.83	    12.288
  31.600        124.17	    12.207
  31.620        103.33	    11.136
  31.640        105.83	    11.269
  31.660        102.50	    11.091
  31.680         96.67	    10.770
  31.700         87.50	    10.247
  31.720         80.00	     9.798
  31.740         65.00	     8.832
  31.760         75.83	     9.539
  31.780         75.00	     9.487
  31.800         63.33	     8.718
  31.820         66.67	     8.944
  31.840         80.00	     9.798
  31.860         79.17	     9.747
  31.880         82.50	     9.950
  31.900         75.83	     9.539
  31.920         84.17	    10.050
  31.940        100.83	    11.000
  31.960        100.00	    10.954
  31.980        110.83	    11.533
  32.000        140.83	    13.000
  32.020        135.83	    12.767
  32.040        142.50	    13.077
  32.060        145.00	    13.191
  32.080        140.83	    13.000
  32.100        155.83	    13.675
  32.120        108.33	    11.402
  32.140        129.17	    12.450
  32.160        111.67	    11.576
  32.180         86.67	    10.198
  32.200         71.67	     9.274
  32.220         78.33	     9.695
  32.240         70.00	     9.165
  32.260         67.50	     9.000
  32.280         76.67	     9.592
  32.300         55.83	     8.185
  32.320         56.67	     8.246
  32.340         50.00	     7.746
  32.360         64.17	     8.775
  32.380         54.17	     8.062
  32.400         62.50	     8.660
  32.420         55.83	     8.185
  32.440         56.67	     8.246
  32.460         51.67	     7.874
  32.480         60.83	     8.544
  32.500         47.50	     7.550
  32.520         52.50	     7.937
  32.540         53.33	     8.000
  32.560         50.00	     7.746
  32.580         42.50	     7.141
  32.600         48.33	     7.616
  32.620         53.33	     8.000
  32.640         41.67	     7.071
  32.660         45.83	     7.416
  32.680         53.33	     8.000
  32.700         40.83	     7.000
  32.720         38.33	     6.782
  32.740         55.00	     8.124
  32.760         51.67	     7.874
  32.780         52.50	     7.937
  32.800         48.33	     7.616
  32.820         54.17	     8.062
  32.840         41.67	     7.071
  32.860         55.00	     8.124
  32.880         67.50	     9.000
  32.900         48.33	     7.616
  32.920         66.67	     8.944
  32.940         58.33	     8.367
  32.960         75.83	     9.539
  32.980         73.33	     9.381
  33.000         83.33	    10.000
  33.020         83.33	    10.000
  33.040         98.33	    10.863
  33.060         64.17	     8.775
  33.080         94.17	    10.630
  33.100         65.00	     8.832
  33.120         77.50	     9.644
  33.140         52.50	     7.937
  33.160         64.17	     8.775
  33.180         53.33	     8.000
  33.200         58.33	     8.367
  33.220         42.50	     7.141
  33.240         50.00	     7.746
  33.260         40.00	     6.928
  33.280         57.50	     8.307
  33.300         46.67	     7.483
  33.320         56.67	     8.246
  33.340         48.33	     7.616
  33.360         48.33	     7.616
  33.380         70.00	     9.165
  33.400         60.83	     8.544
  33.420         69.17	     9.110
  33.440         68.33	     9.055
  33.460         70.00	     9.165
  33.480         60.00	     8.485
  33.500         60.83	     8.544
  33.520         58.33	     8.367
  33.540         65.00	     8.832
  33.560         60.00	     8.485
  33.580         42.50	     7.141
  33.600         68.33	     9.055
  33.620         64.17	     8.775
  33.640         57.50	     8.307
  33.660         51.67	     7.874
  33.680         39.17	     6.856
  33.700         47.50	     7.550
  33.720         45.83	     7.416
  33.740         53.33	     8.000
  33.760         55.83	     8.185
  33.780         61.67	     8.602
  33.800         70.83	     9.220
  33.820         70.83	     9.220
  33.840         75.00	     9.487
  33.860         82.50	     9.950
  33.880         96.67	    10.770
  33.900         87.50	    10.247
  33.920         94.17	    10.630
  33.940         81.67	     9.899
  33.960         81.67	     9.899
  33.980         82.50	     9.950
  34.000         74.17	     9.434
  34.020         88.33	    10.296
  34.040         76.67	     9.592
  34.060         74.17	     9.434
  34.080         77.50	     9.644
  34.100         81.67	     9.899
  34.120         74.17	     9.434
  34.140         70.83	     9.220
  34.160         52.50	     7.937
  34.180         69.17	     9.110
  34.200         82.50	     9.950
  34.220         49.17	     7.681
  34.240         70.83	     9.220
  34.260         57.50	     8.307
  34.280         68.33	     9.055
  34.300         62.50	     8.660
  34.320         82.50	     9.950
  34.340         76.67	     9.592
  34.360         99.17	    10.909
  34.380         89.17	    10.344
  34.400        112.50	    11.619
  34.420        104.17	    11.180
  34.440        120.00	    12.000
  34.460        114.17	    11.705
  34.480        136.67	    12.806
  34.500        139.17	    12.923
  34.520        148.33	    13.342
  34.540        151.67	    13.491
  34.560        134.17	    12.689
  34.580        119.17	    11.958
  34.600        105.83	    11.269
  34.620        115.00	    11.747
  34.640         95.83	    10.724
  34.660         95.83	    10.724
  34.680        105.00	    11.225
  34.700         98.33	    10.863
  34.720         83.33	    10.000
  34.740         85.00	    10.100
  34.760        102.50	    11.091
  34.780        122.50	    12.124
  34.800        119.17	    11.958
  34.820        129.17	    12.450
  34.840        151.67	    13.491
  34.860        132.50	    12.610
  34.880        186.67	    14.967
  34.900        185.83	    14.933
  34.920        201.67	    15.556
  34.940        209.17	    15.843
  34.960        205.00	    15.684
  34.980        204.17	    15.652
  35.000        175.83	    14.526
  35.020        192.50	    15.199
  35.040        170.00	    14.283
  35.060        140.00	    12.961
  35.080        128.33	    12.410
  35.100        140.83	    13.000
  35.120        101.67	    11.045
  35.140        125.00	    12.247
  35.160        115.00	    11.747
  35.180         88.33	    10.296
  35.200        108.33	    11.402
  35.220         95.83	    10.724
  35.240         91.67	    10.488
  35.260         99.17	    10.909
  35.280         79.17	     9.747
  35.300         86.67	    10.198
  35.320         95.83	    10.724
  35.340        119.17	    11.958
  35.360        103.33	    11.136
  35.380        101.67	    11.045
  35.400        111.67	    11.576
  35.420        132.50	    12.610
  35.440        140.83	    13.000
  35.460        124.17	    12.207
  35.480        133.33	    12.649
  35.500        105.00	    11.225
  35.520        105.83	    11.269
  35.540         98.33	    10.863
  35.560        113.33	    11.662
  35.580         95.00	    10.677
  35.600         83.33	    10.000
  35.620         98.33	    10.863
  35.640         85.00	    10.100
  35.660         72.50	     9.327
  35.680         85.83	    10.149
  35.700         98.33	    10.863
  35.720         82.50	     9.950
  35.740         82.50	     9.950
  35.760         84.17	    10.050
  35.780         67.50	     9.000
  35.800         83.33	    10.000
  35.820         80.00	     9.798
  35.840         72.50	     9.327
  35.860         90.00	    10.392
  35.880         86.67	    10.198
  35.900         80.00	     9.798
  35.920        106.67	    11.314
  35.940        120.00	    12.000
  35.960        105.00	    11.225
  35.980        122.50	    12.124
  36.000        145.83	    13.229
  36.020        103.33	    11.136
  36.040        143.33	    13.115
  36.060        113.33	    11.662
  36.080        110.83	    11.533
  36.100         88.33	    10.296
  36.120        105.83	    11.269
  36.140         98.33	    10.863
  36.160        103.33	    11.136
  36.180         75.00	     9.487
  36.200         65.83	     8.888
  36.220         65.83	     8.888
  36.240         60.00	     8.485
  36.260         57.50	     8.307
  36.280         70.83	     9.220
  36.300         60.83	     8.544
  36.320         57.50	     8.307
  36.340         55.00	     8.124
  36.360         83.33	    10.000
  36.380         76.67	     9.592
  36.400         82.50	     9.950
  36.420        101.67	    11.045
  36.440        106.67	    11.314
  36.460        134.17	    12.689
  36.480        164.17	    14.036
  36.500        219.17	    16.217
  36.520        174.17	    14.457
  36.540        158.33	    13.784
  36.560        163.33	    14.000
  36.580        118.33	    11.916
  36.600        158.33	    13.784
  36.620        130.00	    12.490
  36.640        117.50	    11.874
  36.660        125.83	    12.288
  36.680         96.67	    10.770
  36.700        122.50	    12.124
  36.720        119.17	    11.958
  36.740         97.50	    10.817
  36.760         90.83	    10.440
  36.780         90.00	    10.392
  36.800         71.67	     9.274
  36.820         79.17	     9.747
  36.840         73.33	     9.381
  36.860         79.17	     9.747
  36.880         61.67	     8.602
  36.900         61.67	     8.602
  36.920         68.33	     9.055
  36.940         75.00	     9.487
  36.960         62.50	     8.660
  36.980         72.50	     9.327
  37.000         60.00	     8.485
  37.020         66.67	     8.944
  37.040         64.17	     8.775
  37.060         60.00	     8.485
  37.080         62.50	     8.660
  37.100         63.33	     8.718
  37.120         57.50	     8.307
  37.140         64.17	     8.775
  37.160         83.33	    10.000
  37.180         70.83	     9.220
  37.200         76.67	     9.592
  37.220         92.50	    10.536
  37.240         75.83	     9.539
  37.260         81.67	     9.899
  37.280         74.17	     9.434
  37.300         82.50	     9.950
  37.320         75.00	     9.487
  37.340         81.67	     9.899
  37.360         96.67	    10.770
  37.380         76.67	     9.592
  37.400         77.50	     9.644
  37.420         99.17	    10.909
  37.440         88.33	    10.296
  37.460         80.00	     9.798
  37.480         95.00	    10.677
  37.500         90.00	    10.392
  37.520         95.00	    10.677
  37.540         77.50	     9.644
  37.560         97.50	    10.817
  37.580        120.83	    12.042
  37.600        102.50	    11.091
  37.620        118.33	    11.916
  37.640        107.50	    11.358
  37.660        115.83	    11.790
  37.680        125.00	    12.247
  37.700        110.00	    11.489
  37.720        104.17	    11.180
  37.740        115.83	    11.790
  37.760         95.83	    10.724
  37.780         79.17	     9.747
  37.800         83.33	    10.000
  37.820         71.67	     9.274
  37.840         70.83	     9.220
  37.860         74.17	     9.434
  37.880         53.33	     8.000
  37.900         65.00	     8.832
  37.920         45.83	     7.416
  37.940         43.33	     7.211
  37.960         75.83	     9.539
  37.980         85.83	    10.149
  38.000         95.83	    10.724
  38.020        142.50	    13.077
  38.040        194.17	    15.264
  38.060        151.67	    13.491
  38.080        137.50	    12.845
  38.100        105.00	    11.225
  38.120        110.00	    11.489
  38.140        118.33	    11.916
  38.160         96.67	    10.770
  38.180         77.50	     9.644
  38.200         59.17	     8.426
  38.220         48.33	     7.616
  38.240         61.67	     8.602
  38.260         52.50	     7.937
  38.280         58.33	     8.367
  38.300         40.00	     6.928
  38.320         39.17	     6.856
  38.340         39.17	     6.856
  38.360         45.83	     7.416
  38.380         45.83	     7.416
  38.400         39.17	     6.856
  38.420         44.17	     7.280
  38.440         53.33	     8.000
  38.460         55.00	     8.124
  38.480         51.67	     7.874
  38.500         55.00	     8.124
  38.520         54.17	     8.062
  38.540         44.17	     7.280
  38.560         52.50	     7.937
  38.580         50.83	     7.810
  38.600         47.50	     7.550
  38.620         51.67	     7.874
  38.640         59.17	     8.426
  38.660         55.00	     8.124
  38.680         42.50	     7.141
  38.700         56.67	     8.246
  38.720         52.50	     7.937
  38.740         62.50	     8.660
  38.760         60.00	     8.485
  38.780         69.17	     9.110
  38.800         67.50	     9.000
  38.820         73.33	     9.381
  38.840         68.33	     9.055
  38.860         69.17	     9.110
  38.880         63.33	     8.718
  38.900         57.50	     8.307
  38.920         57.50	     8.307
  38.940         58.33	     8.367
  38.960         47.50	     7.550
  38.980         48.33	     7.616
  39.000         53.33	     8.000
  39.020         53.33	     8.000
  39.040         42.50	     7.141
  39.060         46.67	     7.483
  39.080         50.83	     7.810
  39.100         54.17	     8.062
  39.120         70.00	     9.165
  39.140         53.33	     8.000
  39.160         56.67	     8.246
  39.180         48.33	     7.616
  39.200         50.00	     7.746
  39.220         51.67	     7.874
  39.240         45.83	     7.416
  39.260         55.83	     8.185
  39.280         41.67	     7.071
  39.300         48.33	     7.616
  39.320         40.00	     6.928
  39.340         58.33	     8.367
  39.360         58.33	     8.367
  39.380         72.50	     9.327
  39.400        102.50	    11.091
  39.420        130.83	    12.530
  39.440        136.67	    12.806
  39.460        115.00	    11.747
  39.480         95.00	    10.677
  39.500        108.33	    11.402
  39.520        106.67	    11.314
  39.540         85.83	    10.149
  39.560         80.00	     9.798
  39.580         75.83	     9.539
  39.600         52.50	     7.937
  39.620         50.00	     7.746
  39.640         70.83	     9.220
  39.660         65.83	     8.888
  39.680         74.17	     9.434
  39.700         55.83	     8.185
  39.720         56.67	     8.246
  39.740         73.33	     9.381
  39.760         60.00	     8.485
  39.780         95.00	    10.677
  39.800         61.67	     8.602
  39.820         56.67	     8.246
  39.840         60.00	     8.485
  39.860         48.33	     7.616
  39.880         61.67	     8.602
  39.900         48.33	     7.616
  39.920         60.83	     8.544
  39.940         52.50	     7.937
  39.960         54.17	     8.062
  39.980         51.67	     7.874
  40.000         47.50	     7.550
  40.020         56.67	     8.246
  40.040         52.50	     7.937
  40.060         60.83	     8.544
  40.080         61.67	     8.602
  40.100         52.50	     7.937
  40.120         50.83	     7.810
  40.140         52.50	     7.937
  40.160         53.33	     8.000
  40.180         52.50	     7.937
  40.200         68.33	     9.055
  40.220         75.83	     9.539
  40.240         88.33	    10.296
  40.260         92.50	    10.536
  40.280         59.17	     8.426
  40.300         68.33	     9.055
  40.320         69.17	     9.110
  40.340         64.17	     8.775
  40.360         65.00	     8.832
  40.380         70.83	     9.220
  40.400         55.00	     8.124
  40.420         58.33	     8.367
  40.440         48.33	     7.616
  40.460         45.83	     7.416
  40.480         51.67	     7.874
  40.500         41.67	     7.071
  40.520         40.00	     6.928
  40.540         42.50	     7.141
  40.560         45.00	     7.348
  40.580         50.83	     7.810
  40.600         44.17	     7.280
  40.620         45.83	     7.416
  40.640         41.67	     7.071
  40.660         46.67	     7.483
  40.680         48.33	     7.616
  40.700         56.67	     8.246
  40.720         43.33	     7.211
  40.740         46.67	     7.483
  40.760         42.50	     7.141
  40.780         56.67	     8.246
  40.800         47.50	     7.550
  40.820         54.17	     8.062
  40.840         50.00	     7.746
  40.860         49.17	     7.681
  40.880         55.00	     8.124
  40.900         55.83	     8.185
  40.920         54.17	     8.062
  40.940         44.17	     7.280
  40.960         50.00	     7.746
  40.980         54.17	     8.062
  41.000         51.67	     7.874
  41.020         44.17	     7.280
  41.040         53.33	     8.000
  41.060         46.67	     7.483
  41.080         50.83	     7.810
  41.100         45.00	     7.348
  41.120         55.83	     8.185
  41.140         60.00	     8.485
  41.160         70.00	     9.165
  41.180         62.50	     8.660
  41.200         56.67	     8.246
  41.220         57.50	     8.307
  41.240         60.00	     8.485
  41.260         67.50	     9.000
  41.280         56.67	     8.246
  41.300         51.67	     7.874
  41.320         53.33	     8.000
  41.340         59.17	     8.426
  41.360         65.83	     8.888
  41.380         65.00	     8.832
  41.400         65.83	     8.888
  41.420         45.83	     7.416
  41.440         60.00	     8.485
  41.460         53.33	     8.000
  41.480         55.00	     8.124
  41.500         53.33	     8.000
  41.520         63.33	     8.718
  41.540         52.50	     7.937
  41.560         67.50	     9.000
  41.580         62.50	     8.660
  41.600         64.17	     8.775
  41.620         73.33	     9.381
  41.640         69.17	     9.110
  41.660         82.50	     9.950
  41.680         75.83	     9.539
  41.700         86.67	    10.198
  41.720         67.50	     9.000
  41.740         76.67	     9.592
  41.760         65.00	     8.832
  41.780         77.50	     9.644
  41.800         81.67	     9.899
  41.820         72.50	     9.327
  41.840         68.33	     9.055
  41.860         88.33	    10.296
  41.880         92.50	    10.536
  41.900         60.00	     8.485
  41.920         77.50	     9.644
  41.940         83.33	    10.000
  41.960         76.67	     9.592
  41.980         71.67	     9.274
  42.000         75.83	     9.539
  42.020         80.00	     9.798
  42.040         70.00	     9.165
  42.060         64.17	     8.775
  42.080         59.17	     8.426
  42.100         72.50	     9.327
  42.120         72.50	     9.327
  42.140         67.50	     9.000
  42.160         62.50	     8.660
  42.180         68.33	     9.055
  42.200         56.67	     8.246
  42.220         72.50	     9.327
  42.240         78.33	     9.695
  42.260         78.33	     9.695
  42.280        104.17	    11.180
  42.300        111.67	    11.576
  42.320        125.83	    12.288
  42.340        119.17	    11.958
  42.360        116.67	    11.832
  42.380        142.50	    13.077
  42.400        163.33	    14.000
  42.420        155.00	    13.638
  42.440        146.67	    13.266
  42.460        170.83	    14.318
  42.480        111.67	    11.576
  42.500        110.83	    11.533
  42.520        105.83	    11.269
  42.540         97.50	    10.817
  42.560         85.00	    10.100
  42.580         75.83	     9.539
  42.600         85.83	    10.149
  42.620         52.50	     7.937
  42.640         44.17	     7.280
  42.660         53.33	     8.000
  42.680         49.17	     7.681
  42.700         47.50	     7.550
  42.720         58.33	     8.367
  42.740         41.67	     7.071
  42.760         64.17	     8.775
  42.780         55.00	     8.124
  42.800         60.00	     8.485
  42.820         53.33	     8.000
  42.840         60.00	     8.485
  42.860         45.00	     7.348
  42.880         53.33	     8.000
  42.900         46.67	     7.483
  42.920         43.33	     7.211
  42.940         43.33	     7.211
  42.960         53.33	     8.000
  42.980         62.50	     8.660
  43.000         49.17	     7.681
  43.020         49.17	     7.681
  43.040         42.50	     7.141
  43.060         45.00	     7.348
  43.080         50.83	     7.810
  43.100         50.00	     7.746
  43.120         44.17	     7.280
  43.140         49.17	     7.681
  43.160         45.00	     7.348
  43.180         30.83	     6.083
  43.200         45.83	     7.416
  43.220         50.00	     7.746
  43.240         38.33	     6.782
  43.260         46.67	     7.483
  43.280         35.83	     6.557
  43.300         36.67	     6.633
  43.320         38.33	     6.782
  43.340         38.33	     6.782
  43.360         38.33	     6.782
  43.380         40.83	     7.000
  43.400         47.50	     7.550
  43.420         50.00	     7.746
  43.440         42.50	     7.141
  43.460         55.00	     8.124
  43.480         42.50	     7.141
  43.500         50.00	     7.746
  43.520         45.83	     7.416
  43.540         41.67	     7.071
  43.560         47.50	     7.550
  43.580         49.17	     7.681
  43.600         56.67	     8.246
  43.620         52.50	     7.937
  43.640         38.33	     6.782
  43.660         43.33	     7.211
  43.680         40.00	     6.928
  43.700         40.00	     6.928
  43.720         55.83	     8.185
  43.740         35.00	     6.481
  43.760         52.50	     7.937
  43.780         44.17	     7.280
  43.800         53.33	     8.000
  43.820         41.67	     7.071
  43.840         55.00	     8.124
  43.860         54.17	     8.062
  43.880         48.33	     7.616
  43.900         45.83	     7.416
  43.920         42.50	     7.141
  43.940         54.17	     8.062
  43.960         66.67	     8.944
  43.980         60.83	     8.544
  44.000         52.50	     7.937
  44.020         57.50	     8.307
  44.040         47.50	     7.550
  44.060         55.83	     8.185
  44.080         60.00	     8.485
  44.100         61.67	     8.602
  44.120         62.50	     8.660
  44.140         65.00	     8.832
  44.160         90.83	    10.440
  44.180        112.50	    11.619
  44.200        150.00	    13.416
  44.220        167.50	    14.177
  44.240        143.33	    13.115
  44.260        125.83	    12.288
  44.280        122.50	    12.124
  44.300        106.67	    11.314
  44.320         87.50	    10.247
  44.340        118.33	    11.916
  44.360        108.33	    11.402
  44.380         95.83	    10.724
  44.400         60.83	     8.544
  44.420         54.17	     8.062
  44.440         59.17	     8.426
  44.460         47.50	     7.550
  44.480         47.50	     7.550
  44.500         40.83	     7.000
  44.520         39.17	     6.856
  44.540         48.33	     7.616
  44.560         48.33	     7.616
  44.580         45.00	     7.348
  44.600         55.00	     8.124
  44.620         55.83	     8.185
  44.640         55.83	     8.185
  44.660         58.33	     8.367
  44.680         52.50	     7.937
  44.700         57.50	     8.307
  44.720         58.33	     8.367
  44.740         66.67	     8.944
  44.760         74.17	     9.434
  44.780         65.83	     8.888
  44.800         65.83	     8.888
  44.820         70.00	     9.165
  44.840         70.83	     9.220
  44.860         72.50	     9.327
  44.880         86.67	    10.198
  44.900         94.17	    10.630
  44.920         96.67	    10.770
  44.940         94.17	    10.630
  44.960         81.67	     9.899
  44.980         84.17	    10.050
  45.000         89.17	    10.344
  45.020         84.17	    10.050
  45.040        102.50	    11.091
  45.060         98.33	    10.863
  45.080        107.50	    11.358
  45.100         83.33	    10.000
  45.120         88.33	    10.296
  45.140         93.33	    10.583
  45.160         92.50	    10.536
  45.180        123.33	    12.166
  45.200        120.83	    12.042
  45.220        129.17	    12.450
  45.240        122.50	    12.124
  45.260         95.83	    10.724
  45.280        150.83	    13.454
  45.300        125.83	    12.288
  45.320        151.67	    13.491
  45.340        163.33	    14.000
  45.360        186.67	    14.967
  45.380        226.67	    16.492
  45.400        231.67	    16.673
  45.420        254.17	    17.464
  45.440        286.67	    18.547
  45.460        275.83	    18.193
  45.480        281.67	    18.385
  45.500        305.00	    19.131
  45.520        331.67	    19.950
  45.540        327.50	    19.824
  45.560        373.33	    21.166
  45.580        308.33	    19.235
  45.600        259.17	    17.635
  45.620        234.17	    16.763
  45.640        201.67	    15.556
  45.660        186.67	    14.967
  45.680        153.33	    13.565
  45.700        157.50	    13.748
  45.720        147.50	    13.304
  45.740        138.33	    12.884
  45.760        139.17	    12.923
  45.780        126.67	    12.329
  45.800         95.00	    10.677
  45.820        100.83	    11.000
  45.840         94.17	    10.630
  45.860         94.17	    10.630
  45.880        104.17	    11.180
  45.900         76.67	     9.592
  45.920         83.33	    10.000
  45.940         71.67	     9.274
  45.960         74.17	     9.434
  45.980         69.17	     9.110
  46.000         75.83	     9.539
  46.020         75.83	     9.539
  46.040         65.83	     8.888
  46.060         85.83	    10.149
  46.080         70.00	     9.165
  46.100         60.83	     8.544
  46.120         56.67	     8.246
  46.140         52.50	     7.937
  46.160         71.67	     9.274
  46.180         62.50	     8.660
  46.200         55.00	     8.124
  46.220         57.50	     8.307
  46.240         50.83	     7.810
  46.260         64.17	     8.775
  46.280         52.50	     7.937
  46.300         60.83	     8.544
  46.320         36.67	     6.633
  46.340         49.17	     7.681
  46.360         35.00	     6.481
  46.380         44.17	     7.280
  46.400         36.67	     6.633
  46.420         46.67	     7.483
  46.440         40.00	     6.928
  46.460         61.67	     8.602
  46.480         61.67	     8.602
  46.500         36.67	     6.633
  46.520         47.50	     7.550
  46.540         51.67	     7.874
  46.560         57.50	     8.307
  46.580         46.67	     7.483
  46.600         40.00	     6.928
  46.620         39.17	     6.856
  46.640         39.17	     6.856
  46.660         50.00	     7.746
  46.680         43.33	     7.211
  46.700         50.83	     7.810
  46.720         45.00	     7.348
  46.740         47.50	     7.550
  46.760         38.33	     6.782
  46.780         29.17	     5.916
  46.800         37.50	     6.708
  46.820         65.83	     8.888
  46.840         67.50	     9.000
  46.860         35.83	     6.557
  46.880         40.83	     7.000
  46.900         43.33	     7.211
  46.920         46.67	     7.483
  46.940         40.83	     7.000
  46.960         57.50	     8.307
  46.980         49.17	     7.681
  47.000         52.50	     7.937
  47.020         50.00	     7.746
  47.040         60.00	     8.485
  47.060         62.50	     8.660
  47.080         55.83	     8.185
  47.100         56.67	     8.246
  47.120         45.00	     7.348
  47.140         50.83	     7.810
  47.160         39.17	     6.856
  47.180         46.67	     7.483
  47.200         39.17	     6.856
  47.220         50.00	     7.746
  47.240         39.17	     6.856
  47.260         40.00	     6.928
  47.280         46.67	     7.483
  47.300         34.17	     6.403
  47.320         40.00	     6.928
  47.340         35.00	     6.481
  47.360         41.67	     7.071
  47.380         31.67	     6.164
  47.400         38.33	     6.782
  47.420         36.67	     6.633
  47.440         42.50	     7.141
  47.460         31.67	     6.164
  47.480         49.17	     7.681
  47.500         35.83	     6.557
  47.520         44.17	     7.280
  47.540         35.00	     6.481
  47.560         35.00	     6.481
  47.580         38.33	     6.782
  47.600         35.83	     6.557
  47.620         37.50	     6.708
  47.640         35.00	     6.481
  47.660         31.67	     6.164
  47.680         37.50	     6.708
  47.700         34.17	     6.403
  47.720         40.00	     6.928
  47.740         35.83	     6.557
  47.760         45.00	     7.348
  47.780         40.00	     6.928
  47.800         40.83	     7.000
  47.820         42.50	     7.141
  47.840         42.50	     7.141
  47.860         45.83	     7.416
  47.880         50.83	     7.810
  47.900         53.33	     8.000
  47.920         52.50	     7.937
  47.940         56.67	     8.246
  47.960         47.50	     7.550
  47.980         46.67	     7.483
  48.000         50.83	     7.810
  48.020         54.17	     8.062
  48.040         61.67	     8.602
  48.060         98.33	    10.863
  48.080        150.00	    13.416
  48.100        175.83	    14.526
  48.120        215.00	    16.062
  48.140        157.50	    13.748
  48.160        114.17	    11.705
  48.180        104.17	    11.180
  48.200        111.67	    11.576
  48.220        131.67	    12.570
  48.240        122.50	    12.124
  48.260        125.00	    12.247
  48.280        103.33	    11.136
  48.300         94.17	    10.630
  48.320         80.00	     9.798
  48.340         55.00	     8.124
  48.360         68.33	     9.055
  48.380         55.83	     8.185
  48.400         61.67	     8.602
  48.420         59.17	     8.426
  48.440         55.00	     8.124
  48.460         60.00	     8.485
  48.480         41.67	     7.071
  48.500         49.17	     7.681
  48.520         46.67	     7.483
  48.540         41.67	     7.071
  48.560         34.17	     6.403
  48.580         32.50	     6.245
  48.600         40.00	     6.928
  48.620         44.17	     7.280
  48.640         45.83	     7.416
  48.660         37.50	     6.708
  48.680         40.83	     7.000
  48.700         45.83	     7.416
  48.720         32.50	     6.245
  48.740         53.33	     8.000
  48.760         44.17	     7.280
  48.780         46.67	     7.483
  48.800         40.83	     7.000
  48.820         40.00	     6.928
  48.840         40.00	     6.928
  48.860         41.67	     7.071
  48.880         34.17	     6.403
  48.900         30.83	     6.083
  48.920         42.50	     7.141
  48.940         35.83	     6.557
  48.960         53.33	     8.000
  48.980         31.67	     6.164
  49.000         34.17	     6.403
  49.020         26.67	     5.657
  49.040         34.17	     6.403
  49.060         30.83	     6.083
  49.080         32.50	     6.245
  49.100         37.50	     6.708
  49.120         44.17	     7.280
  49.140         50.00	     7.746
  49.160         47.50	     7.550
  49.180         61.67	     8.602
  49.200         60.83	     8.544
  49.220         43.33	     7.211
  49.240         46.67	     7.483
  49.260         42.50	     7.141
  49.280         50.83	     7.810
  49.300         50.83	     7.810
  49.320         42.50	     7.141
  49.340         49.17	     7.681
  49.360         47.50	     7.550
  49.380         40.83	     7.000
  49.400         45.00	     7.348
  49.420         42.50	     7.141
  49.440         45.83	     7.416
  49.460         38.33	     6.782
  49.480         46.67	     7.483
  49.500         40.83	     7.000
  49.520         44.17	     7.280
  49.540         44.17	     7.280
  49.560         45.83	     7.416
  49.580         42.50	     7.141
  49.600         30.83	     6.083
  49.620         34.17	     6.403
  49.640         51.67	     7.874
  49.660         56.67	     8.246
  49.680         41.67	     7.071
  49.700         55.00	     8.124
  49.720         43.33	     7.211
  49.740         65.00	     8.832
  49.760         60.00	     8.485
  49.780         65.83	     8.888
  49.800         73.33	     9.381
  49.820         64.17	     8.775
  49.840         85.00	    10.100
  49.860         95.83	    10.724
  49.880         90.00	    10.392
  49.900        106.67	    11.314
  49.920         82.50	     9.950
  49.940         87.50	    10.247
  49.960         67.50	     9.000
  49.980         75.83	     9.539
  50.000         95.00	    10.677
  50.020        107.50	    11.358
  50.040        109.17	    11.446
  50.060        160.83	    13.892
  50.080        201.67	    15.556
  50.100        226.67	    16.492
  50.120        215.83	    16.093
  50.140        133.33	    12.649
  50.160        123.33	    12.166
  50.180        115.83	    11.790
  50.200        120.83	    12.042
  50.220        140.00	    12.961
  50.240        135.83	    12.767
  50.260        115.83	    11.790
  50.280         85.83	    10.149
  50.300         59.17	     8.426
  50.320         68.33	     9.055
  50.340         46.67	     7.483
  50.360         38.33	     6.782
  50.380         50.00	     7.746
  50.400         46.67	     7.483
  50.420         43.33	     7.211
  50.440         47.50	     7.550
  50.460         50.00	     7.746
  50.480         45.83	     7.416
  50.500         44.17	     7.280
  50.520         65.83	     8.888
  50.540         76.67	     9.592
  50.560         71.67	     9.274
  50.580         70.00	     9.165
  50.600         75.00	     9.487
  50.620         53.33	     8.000
  50.640         66.67	     8.944
  50.660         51.67	     7.874
  50.680         63.33	     8.718
  50.700         81.67	     9.899
  50.720         64.17	     8.775
  50.740         60.83	     8.544
  50.760         55.00	     8.124
  50.780         37.50	     6.708
  50.800         27.50	     5.745
  50.820         43.33	     7.211
  50.840         42.50	     7.141
  50.860         35.83	     6.557
  50.880         34.17	     6.403
  50.900         28.33	     5.831
  50.920         29.17	     5.916
  50.940         30.00	     6.000
  50.960         30.00	     6.000
  50.980         35.83	     6.557
  51.000         39.17	     6.856
  51.020         40.83	     7.000
  51.040         38.33	     6.782
  51.060         50.00	     7.746
  51.080         73.33	     9.381
  51.100         73.33	     9.381
  51.120         77.50	     9.644
  51.140         62.50	     8.660
  51.160         63.33	     8.718
  51.180         50.83	     7.810
  51.200         53.33	     8.000
  51.220         53.33	     8.000
  51.240         71.67	     9.274
  51.260         70.00	     9.165
  51.280         60.00	     8.485
  51.300         55.83	     8.185
  51.320         48.33	     7.616
  51.340         40.83	     7.000
  51.360         37.50	     6.708
  51.380         55.00	     8.124
  51.400         46.67	     7.483
  51.420         42.50	     7.141
  51.440         36.67	     6.633
  51.460         44.17	     7.280
  51.480         35.83	     6.557
  51.500         40.00	     6.928
  51.520         49.17	     7.681
  51.540         30.83	     6.083
  51.560         38.33	     6.782
  51.580         30.00	     6.000
  51.600         34.17	     6.403
  51.620         24.17	     5.385
  51.640         32.50	     6.245
  51.660         26.67	     5.657
  51.680         40.00	     6.928
  51.700         33.33	     6.325
  51.720         38.33	     6.782
  51.740         25.83	     5.568
  51.760         35.83	     6.557
  51.780         27.50	     5.745
  51.800         30.83	     6.083
  51.820         26.67	     5.657
  51.840         34.17	     6.403
  51.860         41.67	     7.071
  51.880         34.17	     6.403
  51.900         33.33	     6.325
  51.920         40.83	     7.000
  51.940         25.83	     5.568
  51.960         33.33	     6.325
  51.980         39.17	     6.856
  52.000         28.33	     5.831
  52.020         24.17	     5.385
  52.040         32.50	     6.245
  52.060         37.50	     6.708
  52.080         39.17	     6.856
  52.100         35.00	     6.481
  52.120         36.67	     6.633
  52.140         42.50	     7.141
  52.160         41.67	     7.071
  52.180         23.33	     5.292
  52.200         53.33	     8.000
  52.220         46.67	     7.483
  52.240         49.17	     7.681
  52.260         48.33	     7.616
  52.280         45.83	     7.416
  52.300         47.50	     7.550
  52.320         40.83	     7.000
  52.340         50.83	     7.810
  52.360         53.33	     8.000
  52.380         40.00	     6.928
  52.400         52.50	     7.937
  52.420         35.00	     6.481
  52.440         45.83	     7.416
  52.460         50.83	     7.810
  52.480         62.50	     8.660
  52.500         44.17	     7.280
  52.520         59.17	     8.426
  52.540         48.33	     7.616
  52.560         51.67	     7.874
  52.580         40.83	     7.000
  52.600         43.33	     7.211
  52.620         45.00	     7.348
  52.640         54.17	     8.062
  52.660         45.00	     7.348
  52.680         46.67	     7.483
  52.700         39.17	     6.856
  52.720         50.00	     7.746
  52.740         54.17	     8.062
  52.760         66.67	     8.944
  52.780         52.50	     7.937
  52.800         45.83	     7.416
  52.820         57.50	     8.307
  52.840         67.50	     9.000
  52.860         48.33	     7.616
  52.880         64.17	     8.775
  52.900         52.50	     7.937
  52.920         56.67	     8.246
  52.940         57.50	     8.307
  52.960         50.00	     7.746
  52.980         41.67	     7.071
  53.000         62.50	     8.660
  53.020         49.17	     7.681
  53.040         60.00	     8.485
  53.060         52.50	     7.937
  53.080         49.17	     7.681
  53.100         58.33	     8.367
  53.120         56.67	     8.246
  53.140         65.00	     8.832
  53.160         61.67	     8.602
  53.180         55.00	     8.124
  53.200         48.33	     7.616
  53.220         60.00	     8.485
  53.240         52.50	     7.937
  53.260         55.00	     8.124
  53.280         57.50	     8.307
  53.300         40.83	     7.000
  53.320         59.17	     8.426
  53.340         50.00	     7.746
  53.360         48.33	     7.616
  53.380         46.67	     7.483
  53.400         46.67	     7.483
  53.420         54.17	     8.062
  53.440         62.50	     8.660
  53.460         45.00	     7.348
  53.480         50.00	     7.746
  53.500         44.17	     7.280
  53.520         43.33	     7.211
  53.540         51.67	     7.874
  53.560         45.83	     7.416
  53.580         36.67	     6.633
  53.600         26.67	     5.657
  53.620         45.83	     7.416
  53.640         39.17	     6.856
  53.660         34.17	     6.403
  53.680         45.00	     7.348
  53.700         40.83	     7.000
  53.720         42.50	     7.141
  53.740         32.50	     6.245
  53.760         35.83	     6.557
  53.780         39.17	     6.856
  53.800         36.67	     6.633
  53.820         42.50	     7.141
  53.840         37.50	     6.708
  53.860         50.83	     7.810
  53.880         40.00	     6.928
  53.900         50.00	     7.746
  53.920         36.67	     6.633
  53.940         40.83	     7.000
  53.960         30.00	     6.000
  53.980         37.50	     6.708
  54.000         37.50	     6.708
  54.020         30.83	     6.083
  54.040         35.83	     6.557
  54.060         40.00	     6.928
  54.080         48.33	     7.616
  54.100         40.00	     6.928
  54.120         50.00	     7.746
  54.140         46.67	     7.483
  54.160         45.83	     7.416
  54.180         49.17	     7.681
  54.200         25.83	     5.568
  54.220         40.00	     6.928
  54.240         60.00	     8.485
  54.260         38.33	     6.782
  54.280         40.83	     7.000
  54.300         44.17	     7.280
  54.320         49.17	     7.681
  54.340         60.83	     8.544
  54.360         57.50	     8.307
  54.380         46.67	     7.483
  54.400         58.33	     8.367
  54.420         52.50	     7.937
  54.440         54.17	     8.062
  54.460         58.33	     8.367
  54.480         50.83	     7.810
  54.500         60.00	     8.485
  54.520         55.83	     8.185
  54.540         69.17	     9.110
  54.560         65.83	     8.888
  54.580         56.67	     8.246
  54.600         65.00	     8.832
  54.620         65.83	     8.888
  54.640         53.33	     8.000
  54.660         57.50	     8.307
  54.680         64.17	     8.775
  54.700         56.67	     8.246
  54.720         65.83	     8.888
  54.740         61.67	     8.602
  54.760         74.17	     9.434
  54.780         80.83	     9.849
  54.800         84.17	    10.050
  54.820        103.33	    11.136
  54.840        102.50	    11.091
  54.860         96.67	    10.770
  54.880         80.00	     9.798
  54.900         64.17	     8.775
  54.920         72.50	     9.327
  54.940         72.50	     9.327
  54.960         73.33	     9.381
  54.980         94.17	    10.630
  55.000         81.67	     9.899
  55.020         69.17	     9.110
  55.040         68.33	     9.055
  55.060         65.83	     8.888
  55.080         50.00	     7.746
  55.100         67.50	     9.000
  55.120         52.50	     7.937
  55.140         75.00	     9.487
  55.160         72.50	     9.327
  55.180         68.33	     9.055
  55.200         85.00	    10.100
  55.220        103.33	    11.136
  55.240         95.83	    10.724
  55.260         85.83	    10.149
  55.280        103.33	    11.136
  55.300         90.83	    10.440
  55.320         95.00	    10.677
  55.340         83.33	    10.000
  55.360         75.00	     9.487
  55.380         76.67	     9.592
  55.400         78.33	     9.695
  55.420         69.17	     9.110
  55.440         70.83	     9.220
  55.460         65.00	     8.832
  55.480         85.00	    10.100
  55.500         77.50	     9.644
  55.520         58.33	     8.367
  55.540         77.50	     9.644
  55.560         67.50	     9.000
  55.580         81.67	     9.899
  55.600         92.50	    10.536
  55.620         80.00	     9.798
  55.640         98.33	    10.863
  55.660         77.50	     9.644
  55.680        105.00	    11.225
  55.700        104.17	    11.180
  55.720        105.00	    11.225
  55.740        101.67	    11.045
  55.760        100.83	    11.000
  55.780        118.33	    11.916
  55.800        105.83	    11.269
  55.820        113.33	    11.662
  55.840        112.50	    11.619
  55.860        110.00	    11.489
  55.880         90.00	    10.392
  55.900        101.67	    11.045
  55.920         96.67	    10.770
  55.940         88.33	    10.296
  55.960         76.67	     9.592
  55.980         81.67	     9.899
  56.000         79.17	     9.747
  56.020         84.17	    10.050
  56.040         62.50	     8.660
  56.060         66.67	     8.944
  56.080         65.83	     8.888
  56.100         65.83	     8.888
  56.120         62.50	     8.660
  56.140         70.00	     9.165
  56.160         56.67	     8.246
  56.180         77.50	     9.644
  56.200         50.83	     7.810
  56.220         48.33	     7.616
  56.240         40.83	     7.000
  56.260         58.33	     8.367
  56.280         49.17	     7.681
  56.300         39.17	     6.856
  56.320         49.17	     7.681
  56.340         43.33	     7.211
  56.360         45.83	     7.416
  56.380         43.33	     7.211
  56.400         46.67	     7.483
  56.420         49.17	     7.681
  56.440         37.50	     6.708
  56.460         32.50	     6.245
  56.480         35.00	     6.481
  56.500         36.67	     6.633
  56.520         47.50	     7.550
  56.540         31.67	     6.164
  56.560         30.83	     6.083
  56.580         39.17	     6.856
  56.600         46.67	     7.483
  56.620         47.50	     7.550
  56.640         40.83	     7.000
  56.660         38.33	     6.782
  56.680         40.00	     6.928
  56.700         44.17	     7.280
  56.720         48.33	     7.616
  56.740         35.00	     6.481
  56.760         36.67	     6.633
  56.780         37.50	     6.708
  56.800         49.17	     7.681
  56.820         43.33	     7.211
  56.840         36.67	     6.633
  56.860         32.50	     6.245
  56.880         42.50	     7.141
  56.900         42.50	     7.141
  56.920         42.50	     7.141
  56.940         45.00	     7.348
  56.960         38.33	     6.782
  56.980         40.00	     6.928
  57.000         40.83	     7.000
  57.020         29.17	     5.916
  57.040         35.83	     6.557
  57.060         49.17	     7.681
  57.080         42.50	     7.141
  57.100         33.33	     6.325
  57.120         40.00	     6.928
  57.140         49.17	     7.681
  57.160         41.67	     7.071
  57.180         33.33	     6.325
  57.200         45.83	     7.416
  57.220         39.17	     6.856
  57.240         45.83	     7.416
  57.260         45.83	     7.416
  57.280         34.17	     6.403
  57.300         42.50	     7.141
  57.320         35.83	     6.557
  57.340         47.50	     7.550
  57.360         39.17	     6.856
  57.380         29.17	     5.916
  57.400         44.17	     7.280
  57.420         42.50	     7.141
  57.440         40.83	     7.000
  57.460         36.67	     6.633
  57.480         43.33	     7.211
  57.500         47.50	     7.550
  57.520         44.17	     7.280
  57.540         33.33	     6.325
  57.560         45.83	     7.416
  57.580         43.33	     7.211
  57.600         47.50	     7.550
  57.620         41.67	     7.071
  57.640         50.00	     7.746
  57.660         42.50	     7.141
  57.680         47.50	     7.550
  57.700         39.17	     6.856
  57.720         41.67	     7.071
  57.740         49.17	     7.681
  57.760         39.17	     6.856
  57.780         39.17	     6.856
  57.800         28.33	     5.831
  57.820         41.67	     7.071
  57.840         26.67	     5.657
  57.860         40.83	     7.000
  57.880         39.17	     6.856
  57.900         40.83	     7.000
  57.920         36.67	     6.633
  57.940         31.67	     6.164
  57.960         37.50	     6.708
  57.980         31.67	     6.164
  58.000         23.33	     5.292
  58.020         35.83	     6.557
  58.040         36.67	     6.633
  58.060         50.00	     7.746
  58.080         33.33	     6.325
  58.100         49.17	     7.681
  58.120         37.50	     6.708
  58.140         46.67	     7.483
  58.160         32.50	     6.245
  58.180         35.83	     6.557
  58.200         32.50	     6.245
  58.220         30.00	     6.000
  58.240         34.17	     6.403
  58.260         39.17	     6.856
  58.280         35.83	     6.557
  58.300         40.83	     7.000
  58.320         34.17	     6.403
  58.340         45.00	     7.348
  58.360         40.83	     7.000
  58.380         45.00	     7.348
  58.400         49.17	     7.681
  58.420         48.33	     7.616
  58.440         40.83	     7.000
  58.460         39.17	     6.856
  58.480         31.67	     6.164
  58.500         44.17	     7.280
  58.520         46.67	     7.483
  58.540         38.33	     6.782
  58.560         54.17	     8.062
  58.580         52.50	     7.937
  58.600         45.83	     7.416
  58.620         50.83	     7.810
  58.640         70.83	     9.220
  58.660         65.00	     8.832
  58.680         61.67	     8.602
  58.700         59.17	     8.426
  58.720         55.83	     8.185
  58.740         48.33	     7.616
  58.760         65.83	     8.888
  58.780         56.67	     8.246
  58.800         58.33	     8.367
  58.820         59.17	     8.426
  58.840         55.00	     8.124
  58.860         64.17	     8.775
  58.880         73.33	     9.381
  58.900         75.83	     9.539
  58.920         61.67	     8.602
  58.940         54.17	     8.062
  58.960         54.17	     8.062
  58.980         62.50	     8.660
  59.000         60.83	     8.544
  59.020         62.50	     8.660
  59.040         53.33	     8.000
  59.060         67.50	     9.000
  59.080         53.33	     8.000
  59.100         67.50	     9.000
  59.120         66.67	     8.944
  59.140         70.83	     9.220
  59.160         73.33	     9.381
  59.180         72.50	     9.327
  59.200         55.00	     8.124
  59.220         44.17	     7.280
  59.240         51.67	     7.874
  59.260         47.50	     7.550
  59.280         58.33	     8.367
  59.300         59.17	     8.426
  59.320         75.00	     9.487
  59.340         58.33	     8.367
  59.360         63.33	     8.718
  59.380         40.00	     6.928
  59.400         47.50	     7.550
  59.420         46.67	     7.483
  59.440         45.83	     7.416
  59.460         46.67	     7.483
  59.480         61.67	     8.602
  59.500         54.17	     8.062
  59.520         55.83	     8.185
  59.540         50.83	     7.810
  59.560         49.17	     7.681
  59.580         52.50	     7.937
  59.600         75.00	     9.487
  59.620         45.00	     7.348
  59.640         52.50	     7.937
  59.660         45.00	     7.348
  59.680         62.50	     8.660
  59.700         61.67	     8.602
  59.720         56.67	     8.246
  59.740         53.33	     8.000
  59.760         58.33	     8.367
  59.780         75.00	     9.487
  59.800         86.67	    10.198
  59.820         74.17	     9.434
  59.840         87.50	    10.247
  59.860         98.33	    10.863
  59.880        118.33	    11.916
  59.900        158.33	    13.784
  59.920        187.50	    15.000
  59.940        160.00	    13.856
  59.960        149.17	    13.379
  59.980        119.17	    11.958
  60.000         95.00	    10.677
  60.020         80.00	     9.798
  60.040        131.67	    12.570
  60.060        115.83	    11.790
  60.080        103.33	    11.136
  60.100        123.33	    12.166
  60.120         90.83	    10.440
  60.140         71.67	     9.274
  60.160         65.83	     8.888
  60.180         64.17	     8.775
  60.200         72.50	     9.327
  60.220         52.50	     7.937
  60.240         57.50	     8.307
  60.260         58.33	     8.367
  60.280         55.83	     8.185
  60.300         65.00	     8.832
  60.320         41.67	     7.071
  60.340         49.17	     7.681
  60.360         42.50	     7.141
  60.380         51.67	     7.874
  60.400         67.50	     9.000
  60.420         60.00	     8.485
  60.440         45.83	     7.416
  60.460         51.67	     7.874
  60.480         49.17	     7.681
  60.500         52.50	     7.937
  60.520         53.33	     8.000
  60.540         74.17	     9.434
  60.560         62.50	     8.660
  60.580         60.83	     8.544
  60.600         70.83	     9.220
  60.620         66.67	     8.944
  60.640         60.00	     8.485
  60.660         78.33	     9.695
  60.680         65.00	     8.832
  60.700         50.00	     7.746
  60.720         77.50	     9.644
  60.740         89.17	    10.344
  60.760         68.33	     9.055
  60.780         69.17	     9.110
  60.800        100.00	    10.954
  60.820         66.67	     8.944
  60.840         70.00	     9.165
  60.860         64.17	     8.775
  60.880         78.33	     9.695
  60.900         65.83	     8.888
  60.920         70.83	     9.220
  60.940         76.67	     9.592
  60.960         81.67	     9.899
  60.980         60.83	     8.544
  61.000         85.00	    10.100
  61.020         69.17	     9.110
  61.040         66.67	     8.944
  61.060         67.50	     9.000
  61.080         52.50	     7.937
  61.100         56.67	     8.246
  61.120         58.33	     8.367
  61.140         60.00	     8.485
  61.160         57.50	     8.307
  61.180         57.50	     8.307
  61.200         53.33	     8.000
  61.220         70.00	     9.165
  61.240         60.83	     8.544
  61.260         56.67	     8.246
  61.280         65.83	     8.888
  61.300         63.33	     8.718
  61.320         64.17	     8.775
  61.340         66.67	     8.944
  61.360         63.33	     8.718
  61.380         76.67	     9.592
  61.400         80.00	     9.798
  61.420         85.00	    10.100
  61.440         74.17	     9.434
  61.460         77.50	     9.644
  61.480         92.50	    10.536
  61.500         69.17	     9.110
  61.520         61.67	     8.602
  61.540         72.50	     9.327
  61.560         83.33	    10.000
  61.580         83.33	    10.000
  61.600         89.17	    10.344
  61.620         84.17	    10.050
  61.640         66.67	     8.944
  61.660         65.00	     8.832
  61.680         71.67	     9.274
  61.700         75.00	     9.487
  61.720         75.83	     9.539
  61.740         64.17	     8.775
  61.760         67.50	     9.000
  61.780         60.00	     8.485
  61.800         53.33	     8.000
  61.820         60.83	     8.544
  61.840         60.83	     8.544
  61.860         55.00	     8.124
  61.880         68.33	     9.055
  61.900         44.17	     7.280
  61.920         58.33	     8.367
  61.940         47.50	     7.550
  61.960         54.17	     8.062
  61.980         49.17	     7.681
  62.000         51.67	     7.874
  62.020         37.50	     6.708
  62.040         39.17	     6.856
  62.060         40.00	     6.928
  62.080         45.00	     7.348
  62.100         45.83	     7.416
  62.120         41.67	     7.071
  62.140         40.83	     7.000
  62.160         55.83	     8.185
  62.180         35.83	     6.557
  62.200         55.00	     8.124
  62.220         47.50	     7.550
  62.240         46.67	     7.483
  62.260         38.33	     6.782
  62.280         39.17	     6.856
  62.300         42.50	     7.141
  62.320         39.17	     6.856
  62.340         44.17	     7.280
  62.360         40.00	     6.928
  62.380         40.83	     7.000
  62.400         34.17	     6.403
  62.420         42.50	     7.141
  62.440         36.67	     6.633
  62.460         32.50	     6.245
  62.480         42.50	     7.141
  62.500         42.50	     7.141
  62.520         47.50	     7.550
  62.540         40.00	     6.928
  62.560         57.50	     8.307
  62.580         27.50	     5.745
  62.600         41.67	     7.071
  62.620         48.33	     7.616
  62.640         45.83	     7.416
  62.660         35.83	     6.557
  62.680         30.00	     6.000
  62.700         35.83	     6.557
  62.720         36.67	     6.633
  62.740         41.67	     7.071
  62.760         50.83	     7.810
  62.780         45.00	     7.348
  62.800         48.33	     7.616
  62.820         45.00	     7.348
  62.840         33.33	     6.325
  62.860         56.67	     8.246
  62.880         44.17	     7.280
  62.900         39.17	     6.856
  62.920         42.50	     7.141
  62.940         33.33	     6.325
  62.960         35.00	     6.481
  62.980         38.33	     6.782
  63.000         48.33	     7.616
  63.020         31.67	     6.164
  63.040         43.33	     7.211
  63.060         39.17	     6.856
  63.080         45.83	     7.416
  63.100         50.83	     7.810
  63.120         38.33	     6.782
  63.140         43.33	     7.211
  63.160         40.83	     7.000
  63.180         31.67	     6.164
  63.200         47.50	     7.550
  63.220         39.17	     6.856
  63.240         43.33	     7.211
  63.260         37.50	     6.708
  63.280         45.83	     7.416
  63.300         43.33	     7.211
  63.320         36.67	     6.633
  63.340         50.83	     7.810
  63.360         50.83	     7.810
  63.380         34.17	     6.403
  63.400         47.50	     7.550
  63.420         44.17	     7.280
  63.440         53.33	     8.000
  63.460         54.17	     8.062
  63.480         42.50	     7.141
  63.500         46.67	     7.483
  63.520         59.17	     8.426
  63.540         40.83	     7.000
  63.560         48.33	     7.616
  63.580         40.83	     7.000
  63.600         35.83	     6.557
  63.620         48.33	     7.616
  63.640         46.67	     7.483
  63.660         60.83	     8.544
  63.680         59.17	     8.426
  63.700         59.17	     8.426
  63.720         56.67	     8.246
  63.740         47.50	     7.550
  63.760         48.33	     7.616
  63.780         59.17	     8.426
  63.800         56.67	     8.246
  63.820         56.67	     8.246
  63.840         58.33	     8.367
  63.860         70.00	     9.165
  63.880         61.67	     8.602
  63.900         61.67	     8.602
  63.920         65.00	     8.832
  63.940         65.83	     8.888
  63.960         65.83	     8.888
  63.980         76.67	     9.592
  64.000         81.67	     9.899
  64.020         80.83	     9.849
  64.040         68.33	     9.055
  64.060         70.00	     9.165
  64.080         67.50	     9.000
  64.100         61.67	     8.602
  64.120         74.17	     9.434
  64.140         65.83	     8.888
  64.160         67.50	     9.000
  64.180         60.83	     8.544
  64.200         60.00	     8.485
  64.220         79.17	     9.747
  64.240         64.17	     8.775
  64.260         75.83	     9.539
  64.280         89.17	    10.344
  64.300         89.17	    10.344
  64.320        123.33	    12.166
  64.340        177.50	    14.595
  64.360        207.50	    15.780
  64.380        220.83	    16.279
  64.400        158.33	    13.784
  64.420        120.00	    12.000
  64.440         93.33	    10.583
  64.460         75.00	     9.487
  64.480         91.67	    10.488
  64.500         89.17	    10.344
  64.520        122.50	    12.124
  64.540        118.33	    11.916
  64.560        117.50	    11.874
  64.580        122.50	    12.124
  64.600         74.17	     9.434
  64.620         74.17	     9.434
  64.640         63.33	     8.718
  64.660         48.33	     7.616
  64.680         50.00	     7.746
  64.700         61.67	     8.602
  64.720         57.50	     8.307
  64.740         55.83	     8.185
  64.760         50.00	     7.746
  64.780         55.00	     8.124
  64.800         62.50	     8.660
  64.820         49.17	     7.681
  64.840         56.67	     8.246
  64.860         58.33	     8.367
  64.880         45.00	     7.348
  64.900         63.33	     8.718
  64.920         60.83	     8.544
  64.940         65.83	     8.888
  64.960         60.83	     8.544
  64.980         40.83	     7.000
  65.000         56.67	     8.246
