
Filename:
	C:\Program Files\Thermo Electron\WinXRD\Datafiles\F_HERMAN\GEO\GG_9_SFT.raw

File Created:
	October 12, 2020 - 06:28 PM

Specimen Id:
	GG_9_SFT

Specimen Name:
	

Specimen Description:
	

Comment:
Scan Type: 2Theta Scan
Start Angle: 3 deg.
Stop Angle: 65 deg.
Num Points: 3101
Step Size: 0.02 deg.
Scan Rate: 1.000000
Scan Mode: Continuous
Wavelength: 1.540562
\Kalpha1: 1.540562	\Kalpha2: 1.544390	\Kbeta: 1.392218

Optics:
		Detector:
			 Type: Fixed Slits
		Tube: 
			 Type: Fixed Slits


Datas:
 Pos [deg]       Rate [CPS]      ESD [-]

Range 1 ---> Iteration 1
   3.000        425.83	    22.605
   3.020        390.83	    21.656
   3.040        438.33	    22.935
   3.060        382.50	    21.424
   3.080        437.50	    22.913
   3.100        409.17	    22.159
   3.120        407.50	    22.113
   3.140        356.67	    20.688
   3.160        363.33	    20.881
   3.180        360.83	    20.809
   3.200        345.83	    20.372
   3.220        370.83	    21.095
   3.240        356.67	    20.688
   3.260        374.17	    21.190
   3.280        365.00	    20.928
   3.300        346.67	    20.396
   3.320        361.67	    20.833
   3.340        361.67	    20.833
   3.360        337.50	    20.125
   3.380        370.00	    21.071
   3.400        351.67	    20.543
   3.420        340.00	    20.199
   3.440        346.67	    20.396
   3.460        346.67	    20.396
   3.480        327.50	    19.824
   3.500        324.17	    19.723
   3.520        335.83	    20.075
   3.540        333.33	    20.000
   3.560        289.17	    18.628
   3.580        311.67	    19.339
   3.600        348.33	    20.445
   3.620        352.50	    20.567
   3.640        310.00	    19.287
   3.660        325.83	    19.774
   3.680        340.00	    20.199
   3.700        294.17	    18.788
   3.720        316.67	    19.494
   3.740        337.50	    20.125
   3.760        319.17	    19.570
   3.780        326.67	    19.799
   3.800        319.17	    19.570
   3.820        320.00	    19.596
   3.840        300.00	    18.974
   3.860        295.83	    18.841
   3.880        300.83	    19.000
   3.900        275.83	    18.193
   3.920        292.50	    18.735
   3.940        300.83	    19.000
   3.960        268.33	    17.944
   3.980        289.17	    18.628
   4.000        258.33	    17.607
   4.020        307.50	    19.209
   4.040        245.00	    17.146
   4.060        274.17	    18.138
   4.080        280.00	    18.330
   4.100        273.33	    18.111
   4.120        280.00	    18.330
   4.140        260.00	    17.664
   4.160        301.67	    19.026
   4.180        271.67	    18.055
   4.200        275.83	    18.193
   4.220        276.67	    18.221
   4.240        268.33	    17.944
   4.260        279.17	    18.303
   4.280        270.83	    18.028
   4.300        281.67	    18.385
   4.320        243.33	    17.088
   4.340        274.17	    18.138
   4.360        250.00	    17.321
   4.380        264.17	    17.804
   4.400        258.33	    17.607
   4.420        271.67	    18.055
   4.440        245.83	    17.176
   4.460        270.00	    18.000
   4.480        245.00	    17.146
   4.500        265.00	    17.833
   4.520        214.17	    16.031
   4.540        235.83	    16.823
   4.560        217.50	    16.155
   4.580        256.67	    17.550
   4.600        241.67	    17.029
   4.620        235.00	    16.793
   4.640        259.17	    17.635
   4.660        249.17	    17.292
   4.680        217.50	    16.155
   4.700        237.50	    16.882
   4.720        205.83	    15.716
   4.740        215.83	    16.093
   4.760        244.17	    17.117
   4.780        213.33	    16.000
   4.800        209.17	    15.843
   4.820        231.67	    16.673
   4.840        217.50	    16.155
   4.860        206.67	    15.748
   4.880        224.17	    16.401
   4.900        222.50	    16.340
   4.920        231.67	    16.673
   4.940        235.00	    16.793
   4.960        213.33	    16.000
   4.980        238.33	    16.912
   5.000        225.83	    16.462
   5.020        200.00	    15.492
   5.040        223.33	    16.371
   5.060        223.33	    16.371
   5.080        235.00	    16.793
   5.100        244.17	    17.117
   5.120        205.83	    15.716
   5.140        220.00	    16.248
   5.160        219.17	    16.217
   5.180        208.33	    15.811
   5.200        211.67	    15.937
   5.220        208.33	    15.811
   5.240        185.00	    14.900
   5.260        205.00	    15.684
   5.280        210.00	    15.875
   5.300        217.50	    16.155
   5.320        200.00	    15.492
   5.340        217.50	    16.155
   5.360        194.17	    15.264
   5.380        175.00	    14.491
   5.400        220.00	    16.248
   5.420        218.33	    16.186
   5.440        213.33	    16.000
   5.460        189.17	    15.067
   5.480        216.67	    16.125
   5.500        212.50	    15.969
   5.520        217.50	    16.155
   5.540        214.17	    16.031
   5.560        210.83	    15.906
   5.580        194.17	    15.264
   5.600        209.17	    15.843
   5.620        220.00	    16.248
   5.640        216.67	    16.125
   5.660        200.83	    15.524
   5.680        196.67	    15.362
   5.700        210.83	    15.906
   5.720        253.33	    17.436
   5.740        210.00	    15.875
   5.760        254.17	    17.464
   5.780        236.67	    16.852
   5.800        246.67	    17.205
   5.820        275.83	    18.193
   5.840        243.33	    17.088
   5.860        258.33	    17.607
   5.880        245.00	    17.146
   5.900        261.67	    17.720
   5.920        279.17	    18.303
   5.940        255.83	    17.521
   5.960        306.67	    19.183
   5.980        305.00	    19.131
   6.000        313.33	    19.391
   6.020        343.33	    20.298
   6.040        329.17	    19.875
   6.060        339.17	    20.174
   6.080        347.50	    20.421
   6.100        314.17	    19.416
   6.120        320.83	    19.621
   6.140        318.33	    19.545
   6.160        310.83	    19.313
   6.180        315.00	    19.442
   6.200        340.83	    20.224
   6.220        352.50	    20.567
   6.240        348.33	    20.445
   6.260        342.50	    20.273
   6.280        358.33	    20.736
   6.300        382.50	    21.424
   6.320        386.67	    21.541
   6.340        369.17	    21.048
   6.360        339.17	    20.174
   6.380        334.17	    20.025
   6.400        322.50	    19.672
   6.420        319.17	    19.570
   6.440        294.17	    18.788
   6.460        265.00	    17.833
   6.480        252.50	    17.407
   6.500        210.83	    15.906
   6.520        210.00	    15.875
   6.540        222.50	    16.340
   6.560        219.17	    16.217
   6.580        213.33	    16.000
   6.600        198.33	    15.427
   6.620        228.33	    16.553
   6.640        216.67	    16.125
   6.660        197.50	    15.395
   6.680        205.00	    15.684
   6.700        200.00	    15.492
   6.720        231.67	    16.673
   6.740        197.50	    15.395
   6.760        187.50	    15.000
   6.780        207.50	    15.780
   6.800        190.00	    15.100
   6.820        209.17	    15.843
   6.840        157.50	    13.748
   6.860        191.67	    15.166
   6.880        205.00	    15.684
   6.900        192.50	    15.199
   6.920        190.00	    15.100
   6.940        199.17	    15.460
   6.960        174.17	    14.457
   6.980        192.50	    15.199
   7.000        197.50	    15.395
   7.020        195.83	    15.330
   7.040        186.67	    14.967
   7.060        200.83	    15.524
   7.080        205.83	    15.716
   7.100        190.83	    15.133
   7.120        198.33	    15.427
   7.140        189.17	    15.067
   7.160        179.17	    14.663
   7.180        189.17	    15.067
   7.200        163.33	    14.000
   7.220        187.50	    15.000
   7.240        179.17	    14.663
   7.260        173.33	    14.422
   7.280        197.50	    15.395
   7.300        156.67	    13.711
   7.320        195.00	    15.297
   7.340        168.33	    14.213
   7.360        172.50	    14.387
   7.380        160.00	    13.856
   7.400        190.83	    15.133
   7.420        195.00	    15.297
   7.440        156.67	    13.711
   7.460        197.50	    15.395
   7.480        190.83	    15.133
   7.500        155.00	    13.638
   7.520        172.50	    14.387
   7.540        178.33	    14.629
   7.560        165.83	    14.107
   7.580        173.33	    14.422
   7.600        173.33	    14.422
   7.620        192.50	    15.199
   7.640        166.67	    14.142
   7.660        160.00	    13.856
   7.680        173.33	    14.422
   7.700        170.00	    14.283
   7.720        149.17	    13.379
   7.740        161.67	    13.928
   7.760        165.00	    14.071
   7.780        172.50	    14.387
   7.800        176.67	    14.560
   7.820        172.50	    14.387
   7.840        181.67	    14.765
   7.860        175.00	    14.491
   7.880        177.50	    14.595
   7.900        192.50	    15.199
   7.920        187.50	    15.000
   7.940        172.50	    14.387
   7.960        185.83	    14.933
   7.980        181.67	    14.765
   8.000        196.67	    15.362
   8.020        200.00	    15.492
   8.040        197.50	    15.395
   8.060        205.00	    15.684
   8.080        206.67	    15.748
   8.100        185.00	    14.900
   8.120        221.67	    16.310
   8.140        202.50	    15.588
   8.160        220.00	    16.248
   8.180        227.50	    16.523
   8.200        216.67	    16.125
   8.220        245.83	    17.176
   8.240        191.67	    15.166
   8.260        231.67	    16.673
   8.280        241.67	    17.029
   8.300        264.17	    17.804
   8.320        238.33	    16.912
   8.340        251.67	    17.378
   8.360        251.67	    17.378
   8.380        254.17	    17.464
   8.400        246.67	    17.205
   8.420        285.83	    18.520
   8.440        270.83	    18.028
   8.460        300.00	    18.974
   8.480        301.67	    19.026
   8.500        344.17	    20.322
   8.520        340.83	    20.224
   8.540        355.83	    20.664
   8.560        366.67	    20.976
   8.580        373.33	    21.166
   8.600        417.50	    22.383
   8.620        455.83	    23.388
   8.640        535.83	    25.357
   8.660        525.83	    25.120
   8.680        593.33	    26.683
   8.700        605.83	    26.963
   8.720        600.00	    26.833
   8.740        617.50	    27.221
   8.760        615.00	    27.166
   8.780        637.50	    27.659
   8.800        617.50	    27.221
   8.820        635.00	    27.604
   8.840        653.33	    28.000
   8.860        723.33	    29.462
   8.880        807.50	    31.129
   8.900        818.33	    31.337
   8.920        983.33	    34.351
   8.940        961.67	    33.971
   8.960        985.00	    34.380
   8.980       1000.83	    34.655
   9.000        903.33	    32.924
   9.020        896.67	    32.802
   9.040        779.17	    30.578
   9.060        693.33	    28.844
   9.080        535.00	    25.338
   9.100        440.00	    22.978
   9.120        370.00	    21.071
   9.140        330.00	    19.900
   9.160        289.17	    18.628
   9.180        240.83	    17.000
   9.200        249.17	    17.292
   9.220        248.33	    17.263
   9.240        240.00	    16.971
   9.260        221.67	    16.310
   9.280        206.67	    15.748
   9.300        210.83	    15.906
   9.320        186.67	    14.967
   9.340        201.67	    15.556
   9.360        186.67	    14.967
   9.380        183.33	    14.832
   9.400        160.00	    13.856
   9.420        180.00	    14.697
   9.440        155.83	    13.675
   9.460        167.50	    14.177
   9.480        153.33	    13.565
   9.500        163.33	    14.000
   9.520        165.83	    14.107
   9.540        160.00	    13.856
   9.560        158.33	    13.784
   9.580        171.67	    14.353
   9.600        158.33	    13.784
   9.620        149.17	    13.379
   9.640        162.50	    13.964
   9.660        117.50	    11.874
   9.680        132.50	    12.610
   9.700        104.17	    11.180
   9.720        122.50	    12.124
   9.740        101.67	    11.045
   9.760        107.50	    11.358
   9.780        120.00	    12.000
   9.800        110.00	    11.489
   9.820        107.50	    11.358
   9.840        100.83	    11.000
   9.860        112.50	    11.619
   9.880        124.17	    12.207
   9.900        120.00	    12.000
   9.920        111.67	    11.576
   9.940         94.17	    10.630
   9.960        112.50	    11.619
   9.980        113.33	    11.662
  10.000         94.17	    10.630
  10.020         93.33	    10.583
  10.040         90.83	    10.440
  10.060        106.67	    11.314
  10.080        124.17	    12.207
  10.100         93.33	    10.583
  10.120        101.67	    11.045
  10.140         95.83	    10.724
  10.160        119.17	    11.958
  10.180        102.50	    11.091
  10.200        100.83	    11.000
  10.220        118.33	    11.916
  10.240         90.00	    10.392
  10.260        100.83	    11.000
  10.280        102.50	    11.091
  10.300        119.17	    11.958
  10.320        103.33	    11.136
  10.340        119.17	    11.958
  10.360        107.50	    11.358
  10.380         92.50	    10.536
  10.400        112.50	    11.619
  10.420        102.50	    11.091
  10.440        120.00	    12.000
  10.460        125.00	    12.247
  10.480        126.67	    12.329
  10.500        113.33	    11.662
  10.520        129.17	    12.450
  10.540        113.33	    11.662
  10.560        131.67	    12.570
  10.580        153.33	    13.565
  10.600        152.50	    13.528
  10.620        142.50	    13.077
  10.640        130.83	    12.530
  10.660        127.50	    12.369
  10.680        143.33	    13.115
  10.700        106.67	    11.314
  10.720        105.00	    11.225
  10.740        110.00	    11.489
  10.760        110.83	    11.533
  10.780        100.00	    10.954
  10.800         77.50	     9.644
  10.820         90.83	    10.440
  10.840        102.50	    11.091
  10.860         89.17	    10.344
  10.880         87.50	    10.247
  10.900         89.17	    10.344
  10.920         88.33	    10.296
  10.940         85.83	    10.149
  10.960         75.83	     9.539
  10.980         90.83	    10.440
  11.000        101.67	    11.045
  11.020         80.00	     9.798
  11.040         90.83	    10.440
  11.060         94.17	    10.630
  11.080         84.17	    10.050
  11.100         88.33	    10.296
  11.120         84.17	    10.050
  11.140         87.50	    10.247
  11.160        101.67	    11.045
  11.180         82.50	     9.950
  11.200         96.67	    10.770
  11.220         93.33	    10.583
  11.240         84.17	    10.050
  11.260         89.17	    10.344
  11.280         90.00	    10.392
  11.300         85.00	    10.100
  11.320         90.83	    10.440
  11.340         78.33	     9.695
  11.360         75.83	     9.539
  11.380        100.00	    10.954
  11.400         83.33	    10.000
  11.420         79.17	     9.747
  11.440        105.83	    11.269
  11.460         75.00	     9.487
  11.480         87.50	    10.247
  11.500         93.33	    10.583
  11.520         86.67	    10.198
  11.540         90.00	    10.392
  11.560         76.67	     9.592
  11.580         95.00	    10.677
  11.600         88.33	    10.296
  11.620         83.33	    10.000
  11.640         81.67	     9.899
  11.660        102.50	    11.091
  11.680        115.00	    11.747
  11.700         88.33	    10.296
  11.720         89.17	    10.344
  11.740        107.50	    11.358
  11.760         84.17	    10.050
  11.780        105.83	    11.269
  11.800        101.67	    11.045
  11.820         83.33	    10.000
  11.840         96.67	    10.770
  11.860        100.00	    10.954
  11.880        100.00	    10.954
  11.900         94.17	    10.630
  11.920        116.67	    11.832
  11.940        115.83	    11.790
  11.960        115.83	    11.790
  11.980        124.17	    12.207
  12.000        150.00	    13.416
  12.020        138.33	    12.884
  12.040        143.33	    13.115
  12.060        148.33	    13.342
  12.080        179.17	    14.663
  12.100        165.00	    14.071
  12.120        178.33	    14.629
  12.140        203.33	    15.620
  12.160        210.83	    15.906
  12.180        250.00	    17.321
  12.200        318.33	    19.545
  12.220        376.67	    21.260
  12.240        443.33	    23.065
  12.260        520.00	    24.980
  12.280        546.67	    25.612
  12.300        615.83	    27.185
  12.320        659.17	    28.125
  12.340        670.83	    28.373
  12.360        600.00	    26.833
  12.380        590.83	    26.627
  12.400        520.00	    24.980
  12.420        496.67	    24.413
  12.440        426.67	    22.627
  12.460        475.83	    23.896
  12.480        536.67	    25.377
  12.500        608.33	    27.019
  12.520        665.83	    28.267
  12.540        760.83	    30.216
  12.560        746.67	    29.933
  12.580        808.33	    31.145
  12.600        790.83	    30.806
  12.620        790.83	    30.806
  12.640        720.83	    29.411
  12.660        652.50	    27.982
  12.680        540.83	    25.475
  12.700        405.83	    22.068
  12.720        303.33	    19.079
  12.740        235.00	    16.793
  12.760        197.50	    15.395
  12.780        163.33	    14.000
  12.800        148.33	    13.342
  12.820        146.67	    13.266
  12.840        124.17	    12.207
  12.860         94.17	    10.630
  12.880        122.50	    12.124
  12.900        100.00	    10.954
  12.920        115.83	    11.790
  12.940        100.83	    11.000
  12.960         98.33	    10.863
  12.980         94.17	    10.630
  13.000         93.33	    10.583
  13.020         78.33	     9.695
  13.040         91.67	    10.488
  13.060         72.50	     9.327
  13.080         80.83	     9.849
  13.100         88.33	    10.296
  13.120         75.00	     9.487
  13.140         78.33	     9.695
  13.160         80.83	     9.849
  13.180         78.33	     9.695
  13.200         66.67	     8.944
  13.220         60.83	     8.544
  13.240         79.17	     9.747
  13.260         64.17	     8.775
  13.280         66.67	     8.944
  13.300         75.00	     9.487
  13.320         82.50	     9.950
  13.340         77.50	     9.644
  13.360         63.33	     8.718
  13.380         88.33	    10.296
  13.400         55.83	     8.185
  13.420         77.50	     9.644
  13.440         67.50	     9.000
  13.460         75.00	     9.487
  13.480         73.33	     9.381
  13.500         86.67	    10.198
  13.520         71.67	     9.274
  13.540         77.50	     9.644
  13.560         77.50	     9.644
  13.580         70.00	     9.165
  13.600         63.33	     8.718
  13.620         60.83	     8.544
  13.640         62.50	     8.660
  13.660         76.67	     9.592
  13.680         71.67	     9.274
  13.700         74.17	     9.434
  13.720         65.83	     8.888
  13.740         85.00	    10.100
  13.760         84.17	    10.050
  13.780         74.17	     9.434
  13.800         84.17	    10.050
  13.820         85.83	    10.149
  13.840         77.50	     9.644
  13.860         86.67	    10.198
  13.880         78.33	     9.695
  13.900         87.50	    10.247
  13.920         96.67	    10.770
  13.940         93.33	    10.583
  13.960         93.33	    10.583
  13.980         95.83	    10.724
  14.000         89.17	    10.344
  14.020         98.33	    10.863
  14.040         80.83	     9.849
  14.060         70.83	     9.220
  14.080         60.83	     8.544
  14.100         53.33	     8.000
  14.120         68.33	     9.055
  14.140         75.83	     9.539
  14.160         70.00	     9.165
  14.180         71.67	     9.274
  14.200         59.17	     8.426
  14.220         54.17	     8.062
  14.240         73.33	     9.381
  14.260         65.83	     8.888
  14.280         59.17	     8.426
  14.300         68.33	     9.055
  14.320         62.50	     8.660
  14.340         65.00	     8.832
  14.360         49.17	     7.681
  14.380         66.67	     8.944
  14.400         53.33	     8.000
  14.420         58.33	     8.367
  14.440         55.00	     8.124
  14.460         65.83	     8.888
  14.480         70.00	     9.165
  14.500         60.00	     8.485
  14.520         56.67	     8.246
  14.540         52.50	     7.937
  14.560         54.17	     8.062
  14.580         53.33	     8.000
  14.600         70.83	     9.220
  14.620         52.50	     7.937
  14.640         54.17	     8.062
  14.660         58.33	     8.367
  14.680         67.50	     9.000
  14.700         64.17	     8.775
  14.720         55.00	     8.124
  14.740         51.67	     7.874
  14.760         46.67	     7.483
  14.780         71.67	     9.274
  14.800         61.67	     8.602
  14.820         55.83	     8.185
  14.840         56.67	     8.246
  14.860         59.17	     8.426
  14.880         60.00	     8.485
  14.900         65.83	     8.888
  14.920         52.50	     7.937
  14.940         65.83	     8.888
  14.960         55.00	     8.124
  14.980         58.33	     8.367
  15.000         55.00	     8.124
  15.020         69.17	     9.110
  15.040         44.17	     7.280
  15.060         72.50	     9.327
  15.080         67.50	     9.000
  15.100         58.33	     8.367
  15.120         64.17	     8.775
  15.140         60.83	     8.544
  15.160         64.17	     8.775
  15.180         64.17	     8.775
  15.200         50.83	     7.810
  15.220         64.17	     8.775
  15.240         50.00	     7.746
  15.260         53.33	     8.000
  15.280         55.00	     8.124
  15.300         45.00	     7.348
  15.320         61.67	     8.602
  15.340         63.33	     8.718
  15.360         54.17	     8.062
  15.380         54.17	     8.062
  15.400         47.50	     7.550
  15.420         52.50	     7.937
  15.440         57.50	     8.307
  15.460         45.00	     7.348
  15.480         60.00	     8.485
  15.500         50.83	     7.810
  15.520         47.50	     7.550
  15.540         70.00	     9.165
  15.560         53.33	     8.000
  15.580         52.50	     7.937
  15.600         58.33	     8.367
  15.620         36.67	     6.633
  15.640         59.17	     8.426
  15.660         53.33	     8.000
  15.680         51.67	     7.874
  15.700         53.33	     8.000
  15.720         34.17	     6.403
  15.740         59.17	     8.426
  15.760         60.00	     8.485
  15.780         57.50	     8.307
  15.800         54.17	     8.062
  15.820         61.67	     8.602
  15.840         60.00	     8.485
  15.860         46.67	     7.483
  15.880         59.17	     8.426
  15.900         57.50	     8.307
  15.920         55.83	     8.185
  15.940         48.33	     7.616
  15.960         42.50	     7.141
  15.980         65.83	     8.888
  16.000         56.67	     8.246
  16.020         50.00	     7.746
  16.040         47.50	     7.550
  16.060         58.33	     8.367
  16.080         63.33	     8.718
  16.100         39.17	     6.856
  16.120         47.50	     7.550
  16.140         47.50	     7.550
  16.160         40.83	     7.000
  16.180         58.33	     8.367
  16.200         55.83	     8.185
  16.220         49.17	     7.681
  16.240         45.83	     7.416
  16.260         39.17	     6.856
  16.280         48.33	     7.616
  16.300         41.67	     7.071
  16.320         48.33	     7.616
  16.340         43.33	     7.211
  16.360         51.67	     7.874
  16.380         50.83	     7.810
  16.400         54.17	     8.062
  16.420         48.33	     7.616
  16.440         45.00	     7.348
  16.460         46.67	     7.483
  16.480         59.17	     8.426
  16.500         44.17	     7.280
  16.520         55.00	     8.124
  16.540         47.50	     7.550
  16.560         61.67	     8.602
  16.580         46.67	     7.483
  16.600         45.00	     7.348
  16.620         53.33	     8.000
  16.640         42.50	     7.141
  16.660         62.50	     8.660
  16.680         58.33	     8.367
  16.700         55.83	     8.185
  16.720         49.17	     7.681
  16.740         54.17	     8.062
  16.760         53.33	     8.000
  16.780         57.50	     8.307
  16.800         48.33	     7.616
  16.820         62.50	     8.660
  16.840         50.00	     7.746
  16.860         50.00	     7.746
  16.880         55.83	     8.185
  16.900         52.50	     7.937
  16.920         58.33	     8.367
  16.940         50.83	     7.810
  16.960         47.50	     7.550
  16.980         58.33	     8.367
  17.000         60.00	     8.485
  17.020         57.50	     8.307
  17.040         60.00	     8.485
  17.060         52.50	     7.937
  17.080         50.00	     7.746
  17.100         54.17	     8.062
  17.120         58.33	     8.367
  17.140         53.33	     8.000
  17.160         80.83	     9.849
  17.180         51.67	     7.874
  17.200         55.83	     8.185
  17.220         63.33	     8.718
  17.240         65.00	     8.832
  17.260         57.50	     8.307
  17.280         57.50	     8.307
  17.300         56.67	     8.246
  17.320         51.67	     7.874
  17.340         63.33	     8.718
  17.360         58.33	     8.367
  17.380         54.17	     8.062
  17.400         62.50	     8.660
  17.420         56.67	     8.246
  17.440         53.33	     8.000
  17.460         60.00	     8.485
  17.480         70.83	     9.220
  17.500         68.33	     9.055
  17.520         56.67	     8.246
  17.540         70.00	     9.165
  17.560         62.50	     8.660
  17.580         79.17	     9.747
  17.600         72.50	     9.327
  17.620         82.50	     9.950
  17.640         84.17	    10.050
  17.660         93.33	    10.583
  17.680         96.67	    10.770
  17.700         92.50	    10.536
  17.720        106.67	    11.314
  17.740        123.33	    12.166
  17.760        144.17	    13.153
  17.780        198.33	    15.427
  17.800        245.83	    17.176
  17.820        292.50	    18.735
  17.840        330.00	    19.900
  17.860        378.33	    21.307
  17.880        384.17	    21.471
  17.900        400.83	    21.932
  17.920        444.17	    23.087
  17.940        405.83	    22.068
  17.960        349.17	    20.469
  17.980        323.33	    19.698
  18.000        256.67	    17.550
  18.020        189.17	    15.067
  18.040        140.00	    12.961
  18.060        129.17	    12.450
  18.080        105.00	    11.225
  18.100         88.33	    10.296
  18.120         91.67	    10.488
  18.140         88.33	    10.296
  18.160         85.83	    10.149
  18.180         81.67	     9.899
  18.200         83.33	    10.000
  18.220         77.50	     9.644
  18.240         80.00	     9.798
  18.260         65.00	     8.832
  18.280         85.83	    10.149
  18.300         62.50	     8.660
  18.320         57.50	     8.307
  18.340         85.00	    10.100
  18.360         66.67	     8.944
  18.380         96.67	    10.770
  18.400         79.17	     9.747
  18.420         86.67	    10.198
  18.440         80.83	     9.849
  18.460         82.50	     9.950
  18.480         93.33	    10.583
  18.500         82.50	     9.950
  18.520         83.33	    10.000
  18.540        100.00	    10.954
  18.560        110.83	    11.533
  18.580         91.67	    10.488
  18.600        106.67	    11.314
  18.620         85.83	    10.149
  18.640        122.50	    12.124
  18.660        119.17	    11.958
  18.680        125.83	    12.288
  18.700        126.67	    12.329
  18.720        156.67	    13.711
  18.740        173.33	    14.422
  18.760        214.17	    16.031
  18.780        212.50	    15.969
  18.800        238.33	    16.912
  18.820        293.33	    18.762
  18.840        305.00	    19.131
  18.860        337.50	    20.125
  18.880        340.83	    20.224
  18.900        309.17	    19.261
  18.920        305.83	    19.157
  18.940        251.67	    17.378
  18.960        242.50	    17.059
  18.980        180.00	    14.697
  19.000        163.33	    14.000
  19.020        121.67	    12.083
  19.040        110.00	    11.489
  19.060         95.00	    10.677
  19.080         81.67	     9.899
  19.100         94.17	    10.630
  19.120         89.17	    10.344
  19.140         72.50	     9.327
  19.160         55.00	     8.124
  19.180         67.50	     9.000
  19.200         73.33	     9.381
  19.220         65.00	     8.832
  19.240         66.67	     8.944
  19.260         57.50	     8.307
  19.280         81.67	     9.899
  19.300         73.33	     9.381
  19.320         66.67	     8.944
  19.340         65.83	     8.888
  19.360         74.17	     9.434
  19.380         59.17	     8.426
  19.400         70.83	     9.220
  19.420         61.67	     8.602
  19.440         75.83	     9.539
  19.460         73.33	     9.381
  19.480         58.33	     8.367
  19.500         70.83	     9.220
  19.520         53.33	     8.000
  19.540         70.83	     9.220
  19.560         55.00	     8.124
  19.580         60.00	     8.485
  19.600         61.67	     8.602
  19.620         69.17	     9.110
  19.640         77.50	     9.644
  19.660         65.00	     8.832
  19.680         47.50	     7.550
  19.700         84.17	    10.050
  19.720         65.00	     8.832
  19.740         80.00	     9.798
  19.760         72.50	     9.327
  19.780         75.00	     9.487
  19.800         88.33	    10.296
  19.820         64.17	     8.775
  19.840         96.67	    10.770
  19.860         97.50	    10.817
  19.880         98.33	    10.863
  19.900         86.67	    10.198
  19.920         93.33	    10.583
  19.940        106.67	    11.314
  19.960        101.67	    11.045
  19.980         90.83	    10.440
  20.000        103.33	    11.136
  20.020        107.50	    11.358
  20.040         74.17	     9.434
  20.060         76.67	     9.592
  20.080         65.00	     8.832
  20.100         67.50	     9.000
  20.120         60.83	     8.544
  20.140         57.50	     8.307
  20.160         60.83	     8.544
  20.180         70.00	     9.165
  20.200         51.67	     7.874
  20.220         53.33	     8.000
  20.240         52.50	     7.937
  20.260         55.00	     8.124
  20.280         62.50	     8.660
  20.300         64.17	     8.775
  20.320         66.67	     8.944
  20.340         55.00	     8.124
  20.360         55.00	     8.124
  20.380         70.00	     9.165
  20.400         61.67	     8.602
  20.420         54.17	     8.062
  20.440         50.83	     7.810
  20.460         50.83	     7.810
  20.480         55.00	     8.124
  20.500         75.83	     9.539
  20.520         45.00	     7.348
  20.540         62.50	     8.660
  20.560         45.83	     7.416
  20.580         42.50	     7.141
  20.600         58.33	     8.367
  20.620         63.33	     8.718
  20.640         65.00	     8.832
  20.660         54.17	     8.062
  20.680         78.33	     9.695
  20.700         64.17	     8.775
  20.720         53.33	     8.000
  20.740         70.00	     9.165
  20.760         67.50	     9.000
  20.780         56.67	     8.246
  20.800         68.33	     9.055
  20.820         68.33	     9.055
  20.840         89.17	    10.344
  20.860         85.83	    10.149
  20.880        125.83	    12.288
  20.900        135.00	    12.728
  20.920        145.00	    13.191
  20.940        160.83	    13.892
  20.960        177.50	    14.595
  20.980        165.00	    14.071
  21.000        171.67	    14.353
  21.020        143.33	    13.115
  21.040        127.50	    12.369
  21.060        105.00	    11.225
  21.080         88.33	    10.296
  21.100         83.33	    10.000
  21.120         80.83	     9.849
  21.140         74.17	     9.434
  21.160         80.83	     9.849
  21.180         65.83	     8.888
  21.200         54.17	     8.062
  21.220         58.33	     8.367
  21.240         55.00	     8.124
  21.260         55.83	     8.185
  21.280         60.83	     8.544
  21.300         64.17	     8.775
  21.320         50.83	     7.810
  21.340         67.50	     9.000
  21.360         65.83	     8.888
  21.380         70.00	     9.165
  21.400         55.00	     8.124
  21.420         48.33	     7.616
  21.440         52.50	     7.937
  21.460         46.67	     7.483
  21.480         54.17	     8.062
  21.500         55.83	     8.185
  21.520         53.33	     8.000
  21.540         56.67	     8.246
  21.560         60.00	     8.485
  21.580         55.00	     8.124
  21.600         62.50	     8.660
  21.620         60.00	     8.485
  21.640         50.00	     7.746
  21.660         60.00	     8.485
  21.680         64.17	     8.775
  21.700         54.17	     8.062
  21.720         62.50	     8.660
  21.740         55.83	     8.185
  21.760         55.00	     8.124
  21.780         46.67	     7.483
  21.800         52.50	     7.937
  21.820         41.67	     7.071
  21.840         70.83	     9.220
  21.860         61.67	     8.602
  21.880         50.00	     7.746
  21.900         65.00	     8.832
  21.920         54.17	     8.062
  21.940         49.17	     7.681
  21.960         65.83	     8.888
  21.980         76.67	     9.592
  22.000         86.67	    10.198
  22.020        102.50	    11.091
  22.040        141.67	    13.038
  22.060        145.00	    13.191
  22.080        155.83	    13.675
  22.100        157.50	    13.748
  22.120        170.00	    14.283
  22.140        203.33	    15.620
  22.160        165.00	    14.071
  22.180        141.67	    13.038
  22.200        127.50	    12.369
  22.220        110.00	    11.489
  22.240         92.50	    10.536
  22.260         62.50	     8.660
  22.280         85.00	    10.100
  22.300         65.83	     8.888
  22.320         71.67	     9.274
  22.340         83.33	    10.000
  22.360         67.50	     9.000
  22.380         61.67	     8.602
  22.400         57.50	     8.307
  22.420         48.33	     7.616
  22.440         62.50	     8.660
  22.460         50.00	     7.746
  22.480         58.33	     8.367
  22.500         76.67	     9.592
  22.520         60.00	     8.485
  22.540         58.33	     8.367
  22.560         63.33	     8.718
  22.580         90.83	    10.440
  22.600         75.00	     9.487
  22.620         63.33	     8.718
  22.640         67.50	     9.000
  22.660         61.67	     8.602
  22.680         73.33	     9.381
  22.700         58.33	     8.367
  22.720         68.33	     9.055
  22.740         59.17	     8.426
  22.760         60.00	     8.485
  22.780         65.00	     8.832
  22.800         59.17	     8.426
  22.820         67.50	     9.000
  22.840         73.33	     9.381
  22.860         75.00	     9.487
  22.880         74.17	     9.434
  22.900         70.83	     9.220
  22.920         79.17	     9.747
  22.940         89.17	    10.344
  22.960        108.33	    11.402
  22.980        107.50	    11.358
  23.000        101.67	    11.045
  23.020        105.00	    11.225
  23.040        105.83	    11.269
  23.060        101.67	    11.045
  23.080        110.00	    11.489
  23.100        120.83	    12.042
  23.120        105.00	    11.225
  23.140        100.83	    11.000
  23.160        106.67	    11.314
  23.180         83.33	    10.000
  23.200         90.83	    10.440
  23.220         90.00	    10.392
  23.240         75.83	     9.539
  23.260         64.17	     8.775
  23.280         64.17	     8.775
  23.300         71.67	     9.274
  23.320         57.50	     8.307
  23.340         71.67	     9.274
  23.360         58.33	     8.367
  23.380         71.67	     9.274
  23.400         58.33	     8.367
  23.420         72.50	     9.327
  23.440         70.00	     9.165
  23.460         78.33	     9.695
  23.480         80.83	     9.849
  23.500         75.83	     9.539
  23.520         89.17	    10.344
  23.540        127.50	    12.369
  23.560        151.67	    13.491
  23.580        155.83	    13.675
  23.600        175.00	    14.491
  23.620        188.33	    15.033
  23.640        180.00	    14.697
  23.660        182.50	    14.799
  23.680        166.67	    14.142
  23.700        172.50	    14.387
  23.720        133.33	    12.649
  23.740        139.17	    12.923
  23.760        134.17	    12.689
  23.780        125.83	    12.288
  23.800        127.50	    12.369
  23.820        112.50	    11.619
  23.840        111.67	    11.576
  23.860         94.17	    10.630
  23.880        111.67	    11.576
  23.900        105.83	    11.269
  23.920        106.67	    11.314
  23.940        120.83	    12.042
  23.960        117.50	    11.874
  23.980        103.33	    11.136
  24.000        100.83	    11.000
  24.020        110.00	    11.489
  24.040        125.00	    12.247
  24.060         80.00	     9.798
  24.080        102.50	    11.091
  24.100        122.50	    12.124
  24.120        125.83	    12.288
  24.140        100.00	    10.954
  24.160        127.50	    12.369
  24.180        120.00	    12.000
  24.200        115.83	    11.790
  24.220        127.50	    12.369
  24.240        136.67	    12.806
  24.260        123.33	    12.166
  24.280        159.17	    13.820
  24.300        165.00	    14.071
  24.320        154.17	    13.601
  24.340        178.33	    14.629
  24.360        170.83	    14.318
  24.380        172.50	    14.387
  24.400        170.83	    14.318
  24.420        150.83	    13.454
  24.440        161.67	    13.928
  24.460        137.50	    12.845
  24.480        152.50	    13.528
  24.500        140.83	    13.000
  24.520        145.83	    13.229
  24.540        136.67	    12.806
  24.560        170.00	    14.283
  24.580        192.50	    15.199
  24.600        201.67	    15.556
  24.620        270.00	    18.000
  24.640        300.83	    19.000
  24.660        347.50	    20.421
  24.680        416.67	    22.361
  24.700        420.00	    22.450
  24.720        516.67	    24.900
  24.740        502.50	    24.556
  24.760        514.17	    24.839
  24.780        490.83	    24.269
  24.800        502.50	    24.556
  24.820        439.17	    22.956
  24.840        369.17	    21.048
  24.860        365.83	    20.952
  24.880        310.00	    19.287
  24.900        275.83	    18.193
  24.920        249.17	    17.292
  24.940        272.50	    18.083
  24.960        226.67	    16.492
  24.980        228.33	    16.553
  25.000        241.67	    17.029
  25.020        264.17	    17.804
  25.040        238.33	    16.912
  25.060        257.50	    17.578
  25.080        320.00	    19.596
  25.100        327.50	    19.824
  25.120        383.33	    21.448
  25.140        438.33	    22.935
  25.160        455.83	    23.388
  25.180        601.67	    26.870
  25.200        647.50	    27.875
  25.220        686.67	    28.705
  25.240        715.83	    29.309
  25.260        765.83	    30.315
  25.280        640.00	    27.713
  25.300        590.83	    26.627
  25.320        485.00	    24.125
  25.340        419.17	    22.428
  25.360        365.00	    20.928
  25.380        321.67	    19.647
  25.400        253.33	    17.436
  25.420        250.00	    17.321
  25.440        214.17	    16.031
  25.460        220.00	    16.248
  25.480        235.83	    16.823
  25.500        227.50	    16.523
  25.520        237.50	    16.882
  25.540        237.50	    16.882
  25.560        256.67	    17.550
  25.580        225.83	    16.462
  25.600        240.83	    17.000
  25.620        250.00	    17.321
  25.640        228.33	    16.553
  25.660        238.33	    16.912
  25.680        203.33	    15.620
  25.700        193.33	    15.232
  25.720        204.17	    15.652
  25.740        163.33	    14.000
  25.760        173.33	    14.422
  25.780        182.50	    14.799
  25.800        178.33	    14.629
  25.820        142.50	    13.077
  25.840        145.00	    13.191
  25.860        131.67	    12.570
  25.880        121.67	    12.083
  25.900        143.33	    13.115
  25.920        133.33	    12.649
  25.940        164.17	    14.036
  25.960        145.83	    13.229
  25.980        143.33	    13.115
  26.000        134.17	    12.689
  26.020        123.33	    12.166
  26.040        125.83	    12.288
  26.060        131.67	    12.570
  26.080        135.83	    12.767
  26.100        151.67	    13.491
  26.120        143.33	    13.115
  26.140        156.67	    13.711
  26.160        169.17	    14.248
  26.180        146.67	    13.266
  26.200        164.17	    14.036
  26.220        184.17	    14.866
  26.240        174.17	    14.457
  26.260        191.67	    15.166
  26.280        219.17	    16.217
  26.300        200.83	    15.524
  26.320        218.33	    16.186
  26.340        231.67	    16.673
  26.360        256.67	    17.550
  26.380        247.50	    17.234
  26.400        291.67	    18.708
  26.420        300.00	    18.974
  26.440        300.00	    18.974
  26.460        353.33	    20.591
  26.480        356.67	    20.688
  26.500        454.17	    23.345
  26.520        413.33	    22.271
  26.540        425.00	    22.583
  26.560        445.00	    23.108
  26.580        460.00	    23.495
  26.600        529.17	    25.199
  26.620        600.00	    26.833
  26.640        702.50	    29.034
  26.660        810.00	    31.177
  26.680        912.50	    33.091
  26.700       1052.50	    35.539
  26.720       1110.83	    36.510
  26.740       1165.00	    37.390
  26.760       1099.17	    36.318
  26.780       1055.00	    35.581
  26.800        985.00	    34.380
  26.820        934.17	    33.481
  26.840        910.00	    33.045
  26.860       1085.00	    36.083
  26.880       1055.83	    35.595
  26.900       1145.83	    37.081
  26.920       1190.83	    37.802
  26.940       1244.17	    38.639
  26.960       1153.33	    37.202
  26.980       1160.00	    37.310
  27.000       1098.33	    36.304
  27.020        906.67	    32.985
  27.040        761.67	    30.232
  27.060        653.33	    28.000
  27.080        487.50	    24.187
  27.100        437.50	    22.913
  27.120        322.50	    19.672
  27.140        295.83	    18.841
  27.160        246.67	    17.205
  27.180        234.17	    16.763
  27.200        228.33	    16.553
  27.220        187.50	    15.000
  27.240        146.67	    13.266
  27.260        183.33	    14.832
  27.280        155.83	    13.675
  27.300        149.17	    13.379
  27.320        155.00	    13.638
  27.340        152.50	    13.528
  27.360        167.50	    14.177
  27.380        159.17	    13.820
  27.400        125.00	    12.247
  27.420        140.83	    13.000
  27.440        146.67	    13.266
  27.460        147.50	    13.304
  27.480        145.83	    13.229
  27.500        163.33	    14.000
  27.520        163.33	    14.000
  27.540        173.33	    14.422
  27.560        186.67	    14.967
  27.580        230.00	    16.613
  27.600        201.67	    15.556
  27.620        201.67	    15.556
  27.640        185.00	    14.900
  27.660        170.00	    14.283
  27.680        188.33	    15.033
  27.700        180.83	    14.731
  27.720        205.83	    15.716
  27.740        203.33	    15.620
  27.760        216.67	    16.125
  27.780        260.00	    17.664
  27.800        319.17	    19.570
  27.820        311.67	    19.339
  27.840        342.50	    20.273
  27.860        370.83	    21.095
  27.880        393.33	    21.726
  27.900        415.00	    22.316
  27.920        440.83	    23.000
  27.940        506.67	    24.658
  27.960        522.50	    25.040
  27.980        607.50	    27.000
  28.000        673.33	    28.425
  28.020        620.00	    27.276
  28.040        570.00	    26.153
  28.060        552.50	    25.749
  28.080        488.33	    24.207
  28.100        387.50	    21.564
  28.120        342.50	    20.273
  28.140        269.17	    17.972
  28.160        230.00	    16.613
  28.180        234.17	    16.763
  28.200        210.00	    15.875
  28.220        190.00	    15.100
  28.240        185.83	    14.933
  28.260        185.00	    14.900
  28.280        165.00	    14.071
  28.300        168.33	    14.213
  28.320        172.50	    14.387
  28.340        185.83	    14.933
  28.360        177.50	    14.595
  28.380        175.00	    14.491
  28.400        151.67	    13.491
  28.420        145.83	    13.229
  28.440        142.50	    13.077
  28.460        115.83	    11.790
  28.480        110.83	    11.533
  28.500        130.83	    12.530
  28.520        123.33	    12.166
  28.540        145.00	    13.191
  28.560        164.17	    14.036
  28.580        150.00	    13.416
  28.600        189.17	    15.067
  28.620        166.67	    14.142
  28.640        171.67	    14.353
  28.660        178.33	    14.629
  28.680        192.50	    15.199
  28.700        187.50	    15.000
  28.720        194.17	    15.264
  28.740        188.33	    15.033
  28.760        165.00	    14.071
  28.780        175.00	    14.491
  28.800        161.67	    13.928
  28.820        139.17	    12.923
  28.840        151.67	    13.491
  28.860        140.83	    13.000
  28.880        113.33	    11.662
  28.900        113.33	    11.662
  28.920        112.50	    11.619
  28.940        120.83	    12.042
  28.960        111.67	    11.576
  28.980         77.50	     9.644
  29.000         71.67	     9.274
  29.020         86.67	    10.198
  29.040         89.17	    10.344
  29.060         81.67	     9.899
  29.080         78.33	     9.695
  29.100         67.50	     9.000
  29.120         60.00	     8.485
  29.140         63.33	     8.718
  29.160         59.17	     8.426
  29.180         61.67	     8.602
  29.200         69.17	     9.110
  29.220         67.50	     9.000
  29.240         82.50	     9.950
  29.260         63.33	     8.718
  29.280         70.00	     9.165
  29.300         65.83	     8.888
  29.320         55.83	     8.185
  29.340         67.50	     9.000
  29.360         66.67	     8.944
  29.380         68.33	     9.055
  29.400         70.83	     9.220
  29.420         75.83	     9.539
  29.440         74.17	     9.434
  29.460         55.83	     8.185
  29.480         60.00	     8.485
  29.500         68.33	     9.055
  29.520         61.67	     8.602
  29.540         64.17	     8.775
  29.560         70.00	     9.165
  29.580         66.67	     8.944
  29.600         65.00	     8.832
  29.620         54.17	     8.062
  29.640         78.33	     9.695
  29.660         69.17	     9.110
  29.680         75.00	     9.487
  29.700        102.50	    11.091
  29.720         92.50	    10.536
  29.740         90.00	    10.392
  29.760         95.83	    10.724
  29.780        106.67	    11.314
  29.800        109.17	    11.446
  29.820        110.00	    11.489
  29.840        129.17	    12.450
  29.860        136.67	    12.806
  29.880        146.67	    13.266
  29.900        157.50	    13.748
  29.920        183.33	    14.832
  29.940        198.33	    15.427
  29.960        192.50	    15.199
  29.980        184.17	    14.866
  30.000        175.83	    14.526
  30.020        185.83	    14.933
  30.040        181.67	    14.765
  30.060        160.00	    13.856
  30.080        135.83	    12.767
  30.100        120.00	    12.000
  30.120        149.17	    13.379
  30.140        122.50	    12.124
  30.160        130.83	    12.530
  30.180        115.83	    11.790
  30.200        100.83	    11.000
  30.220        122.50	    12.124
  30.240        120.00	    12.000
  30.260        110.83	    11.533
  30.280        108.33	    11.402
  30.300        117.50	    11.874
  30.320        120.83	    12.042
  30.340         94.17	    10.630
  30.360        107.50	    11.358
  30.380        124.17	    12.207
  30.400        123.33	    12.166
  30.420        106.67	    11.314
  30.440        110.83	    11.533
  30.460        125.00	    12.247
  30.480        139.17	    12.923
  30.500        147.50	    13.304
  30.520        131.67	    12.570
  30.540        155.00	    13.638
  30.560        170.00	    14.283
  30.580        150.00	    13.416
  30.600        140.83	    13.000
  30.620        119.17	    11.958
  30.640        119.17	    11.958
  30.660        124.17	    12.207
  30.680        100.00	    10.954
  30.700        100.00	    10.954
  30.720         86.67	    10.198
  30.740         80.00	     9.798
  30.760         75.00	     9.487
  30.780         76.67	     9.592
  30.800         79.17	     9.747
  30.820         82.50	     9.950
  30.840         94.17	    10.630
  30.860         85.00	    10.100
  30.880        109.17	    11.446
  30.900        100.83	    11.000
  30.920        109.17	    11.446
  30.940        100.83	    11.000
  30.960         85.00	    10.100
  30.980        115.00	    11.747
  31.000         95.83	    10.724
  31.020        106.67	    11.314
  31.040         96.67	    10.770
  31.060        110.83	    11.533
  31.080        105.00	    11.225
  31.100        131.67	    12.570
  31.120        129.17	    12.450
  31.140        119.17	    11.958
  31.160        130.83	    12.530
  31.180        162.50	    13.964
  31.200        140.00	    12.961
  31.220        144.17	    13.153
  31.240        150.83	    13.454
  31.260        158.33	    13.784
  31.280        203.33	    15.620
  31.300        160.00	    13.856
  31.320        193.33	    15.232
  31.340        200.00	    15.492
  31.360        180.83	    14.731
  31.380        162.50	    13.964
  31.400        168.33	    14.213
  31.420        178.33	    14.629
  31.440        145.00	    13.191
  31.460        147.50	    13.304
  31.480        132.50	    12.610
  31.500        165.00	    14.071
  31.520        130.83	    12.530
  31.540        141.67	    13.038
  31.560        142.50	    13.077
  31.580        116.67	    11.832
  31.600        150.83	    13.454
  31.620        179.17	    14.663
  31.640        164.17	    14.036
  31.660        177.50	    14.595
  31.680        164.17	    14.036
  31.700        170.83	    14.318
  31.720        166.67	    14.142
  31.740        148.33	    13.342
  31.760        128.33	    12.410
  31.780        107.50	    11.358
  31.800        117.50	    11.874
  31.820        106.67	    11.314
  31.840         79.17	     9.747
  31.860         85.83	    10.149
  31.880         89.17	    10.344
  31.900         94.17	    10.630
  31.920         79.17	     9.747
  31.940         94.17	    10.630
  31.960         91.67	    10.488
  31.980         84.17	    10.050
  32.000         95.00	    10.677
  32.020        106.67	    11.314
  32.040         98.33	    10.863
  32.060        104.17	    11.180
  32.080        116.67	    11.832
  32.100        135.83	    12.767
  32.120        125.83	    12.288
  32.140        119.17	    11.958
  32.160        135.83	    12.767
  32.180        141.67	    13.038
  32.200        140.00	    12.961
  32.220        111.67	    11.576
  32.240        119.17	    11.958
  32.260        108.33	    11.402
  32.280         87.50	    10.247
  32.300         94.17	    10.630
  32.320         85.00	    10.100
  32.340         68.33	     9.055
  32.360         69.17	     9.110
  32.380         76.67	     9.592
  32.400         66.67	     8.944
  32.420         70.00	     9.165
  32.440         57.50	     8.307
  32.460         56.67	     8.246
  32.480         66.67	     8.944
  32.500         60.83	     8.544
  32.520         52.50	     7.937
  32.540         55.00	     8.124
  32.560         49.17	     7.681
  32.580         65.83	     8.888
  32.600         51.67	     7.874
  32.620         48.33	     7.616
  32.640         61.67	     8.602
  32.660         51.67	     7.874
  32.680         53.33	     8.000
  32.700         47.50	     7.550
  32.720         56.67	     8.246
  32.740         41.67	     7.071
  32.760         51.67	     7.874
  32.780         48.33	     7.616
  32.800         55.00	     8.124
  32.820         59.17	     8.426
  32.840         45.00	     7.348
  32.860         43.33	     7.211
  32.880         47.50	     7.550
  32.900         55.83	     8.185
  32.920         52.50	     7.937
  32.940         48.33	     7.616
  32.960         57.50	     8.307
  32.980         65.00	     8.832
  33.000         53.33	     8.000
  33.020         61.67	     8.602
  33.040         63.33	     8.718
  33.060         66.67	     8.944
  33.080         87.50	    10.247
  33.100         83.33	    10.000
  33.120         90.00	    10.392
  33.140        102.50	    11.091
  33.160         88.33	    10.296
  33.180         85.00	    10.100
  33.200         86.67	    10.198
  33.220         94.17	    10.630
  33.240         84.17	    10.050
  33.260         59.17	     8.426
  33.280         68.33	     9.055
  33.300         54.17	     8.062
  33.320         59.17	     8.426
  33.340         50.83	     7.810
  33.360         57.50	     8.307
  33.380         53.33	     8.000
  33.400         64.17	     8.775
  33.420         61.67	     8.602
  33.440         60.00	     8.485
  33.460         63.33	     8.718
  33.480         61.67	     8.602
  33.500         62.50	     8.660
  33.520         67.50	     9.000
  33.540         58.33	     8.367
  33.560         60.00	     8.485
  33.580         66.67	     8.944
  33.600         60.00	     8.485
  33.620         65.83	     8.888
  33.640         60.83	     8.544
  33.660         50.83	     7.810
  33.680         62.50	     8.660
  33.700         54.17	     8.062
  33.720         62.50	     8.660
  33.740         57.50	     8.307
  33.760         58.33	     8.367
  33.780         47.50	     7.550
  33.800         55.83	     8.185
  33.820         56.67	     8.246
  33.840         59.17	     8.426
  33.860         55.00	     8.124
  33.880         70.00	     9.165
  33.900         67.50	     9.000
  33.920         52.50	     7.937
  33.940         52.50	     7.937
  33.960         60.83	     8.544
  33.980         69.17	     9.110
  34.000         90.83	    10.440
  34.020         63.33	     8.718
  34.040         85.00	    10.100
  34.060         67.50	     9.000
  34.080         61.67	     8.602
  34.100         80.83	     9.849
  34.120         83.33	    10.000
  34.140         90.83	    10.440
  34.160         78.33	     9.695
  34.180         76.67	     9.592
  34.200         77.50	     9.644
  34.220         70.83	     9.220
  34.240         79.17	     9.747
  34.260         76.67	     9.592
  34.280         72.50	     9.327
  34.300         68.33	     9.055
  34.320         71.67	     9.274
  34.340         75.00	     9.487
  34.360         57.50	     8.307
  34.380         72.50	     9.327
  34.400         85.00	    10.100
  34.420         65.83	     8.888
  34.440         77.50	     9.644
  34.460         85.00	    10.100
  34.480        111.67	    11.576
  34.500        116.67	    11.832
  34.520        116.67	    11.832
  34.540         97.50	    10.817
  34.560        116.67	    11.832
  34.580        113.33	    11.662
  34.600        127.50	    12.369
  34.620        130.83	    12.530
  34.640        120.83	    12.042
  34.660        125.83	    12.288
  34.680        110.00	    11.489
  34.700        134.17	    12.689
  34.720        103.33	    11.136
  34.740        119.17	    11.958
  34.760         90.00	    10.392
  34.780        100.83	    11.000
  34.800         84.17	    10.050
  34.820         83.33	    10.000
  34.840         85.83	    10.149
  34.860        107.50	    11.358
  34.880         99.17	    10.909
  34.900        116.67	    11.832
  34.920        117.50	    11.874
  34.940        136.67	    12.806
  34.960        143.33	    13.115
  34.980        129.17	    12.450
  35.000        160.00	    13.856
  35.020        153.33	    13.565
  35.040        148.33	    13.342
  35.060        138.33	    12.884
  35.080        160.00	    13.856
  35.100        156.67	    13.711
  35.120        145.00	    13.191
  35.140        130.00	    12.490
  35.160        156.67	    13.711
  35.180        122.50	    12.124
  35.200        130.83	    12.530
  35.220        103.33	    11.136
  35.240        110.00	    11.489
  35.260        108.33	    11.402
  35.280         95.83	    10.724
  35.300         89.17	    10.344
  35.320        103.33	    11.136
  35.340         98.33	    10.863
  35.360        104.17	    11.180
  35.380         80.83	     9.849
  35.400         86.67	    10.198
  35.420        109.17	    11.446
  35.440        105.83	    11.269
  35.460         87.50	    10.247
  35.480        110.83	    11.533
  35.500         93.33	    10.583
  35.520        131.67	    12.570
  35.540        106.67	    11.314
  35.560        108.33	    11.402
  35.580        120.83	    12.042
  35.600        112.50	    11.619
  35.620        122.50	    12.124
  35.640        103.33	    11.136
  35.660        113.33	    11.662
  35.680         84.17	    10.050
  35.700         96.67	    10.770
  35.720         80.83	     9.849
  35.740        107.50	    11.358
  35.760         83.33	    10.000
  35.780         94.17	    10.630
  35.800         85.83	    10.149
  35.820         98.33	    10.863
  35.840         81.67	     9.899
  35.860         83.33	    10.000
  35.880        112.50	    11.619
  35.900         95.83	    10.724
  35.920        100.00	    10.954
  35.940         91.67	    10.488
  35.960         76.67	     9.592
  35.980         95.83	    10.724
  36.000        101.67	    11.045
  36.020         90.00	    10.392
  36.040        129.17	    12.450
  36.060        113.33	    11.662
  36.080        116.67	    11.832
  36.100        126.67	    12.329
  36.120        131.67	    12.570
  36.140        145.83	    13.229
  36.160        137.50	    12.845
  36.180        149.17	    13.379
  36.200        137.50	    12.845
  36.220        142.50	    13.077
  36.240        111.67	    11.576
  36.260         96.67	    10.770
  36.280         99.17	    10.909
  36.300        105.83	    11.269
  36.320         98.33	    10.863
  36.340         72.50	     9.327
  36.360         85.00	    10.100
  36.380         72.50	     9.327
  36.400         56.67	     8.246
  36.420         85.00	    10.100
  36.440         75.00	     9.487
  36.460         72.50	     9.327
  36.480         65.00	     8.832
  36.500         73.33	     9.381
  36.520         79.17	     9.747
  36.540         86.67	    10.198
  36.560         93.33	    10.583
  36.580        115.00	    11.747
  36.600        130.00	    12.490
  36.620        141.67	    13.038
  36.640        125.00	    12.247
  36.660        117.50	    11.874
  36.680        145.00	    13.191
  36.700        122.50	    12.124
  36.720        115.00	    11.747
  36.740        113.33	    11.662
  36.760        117.50	    11.874
  36.780        107.50	    11.358
  36.800        105.83	    11.269
  36.820        105.00	    11.225
  36.840         94.17	    10.630
  36.860         83.33	    10.000
  36.880         81.67	     9.899
  36.900         77.50	     9.644
  36.920         85.00	    10.100
  36.940         77.50	     9.644
  36.960         70.83	     9.220
  36.980         69.17	     9.110
  37.000         73.33	     9.381
  37.020         75.83	     9.539
  37.040         66.67	     8.944
  37.060         58.33	     8.367
  37.080         77.50	     9.644
  37.100         51.67	     7.874
  37.120         66.67	     8.944
  37.140         70.00	     9.165
  37.160         67.50	     9.000
  37.180         66.67	     8.944
  37.200         65.83	     8.888
  37.220         77.50	     9.644
  37.240         61.67	     8.602
  37.260         76.67	     9.592
  37.280         79.17	     9.747
  37.300         89.17	    10.344
  37.320         74.17	     9.434
  37.340         72.50	     9.327
  37.360         77.50	     9.644
  37.380         88.33	    10.296
  37.400         76.67	     9.592
  37.420         82.50	     9.950
  37.440         98.33	    10.863
  37.460         95.00	    10.677
  37.480         98.33	    10.863
  37.500         83.33	    10.000
  37.520         92.50	    10.536
  37.540        100.00	    10.954
  37.560         69.17	     9.110
  37.580        100.83	    11.000
  37.600         98.33	    10.863
  37.620        100.00	    10.954
  37.640         84.17	    10.050
  37.660        100.00	    10.954
  37.680         97.50	    10.817
  37.700         89.17	    10.344
  37.720         87.50	    10.247
  37.740        123.33	    12.166
  37.760         97.50	    10.817
  37.780        100.00	    10.954
  37.800        111.67	    11.576
  37.820         86.67	    10.198
  37.840         93.33	    10.583
  37.860         93.33	    10.583
  37.880         77.50	     9.644
  37.900         70.00	     9.165
  37.920         68.33	     9.055
  37.940         53.33	     8.000
  37.960         52.50	     7.937
  37.980         58.33	     8.367
  38.000         52.50	     7.937
  38.020         48.33	     7.616
  38.040         40.83	     7.000
  38.060         56.67	     8.246
  38.080         50.00	     7.746
  38.100         36.67	     6.633
  38.120         37.50	     6.708
  38.140         50.83	     7.810
  38.160         40.83	     7.000
  38.180         42.50	     7.141
  38.200         44.17	     7.280
  38.220         36.67	     6.633
  38.240         36.67	     6.633
  38.260         49.17	     7.681
  38.280         38.33	     6.782
  38.300         34.17	     6.403
  38.320         27.50	     5.745
  38.340         24.17	     5.385
  38.360         32.50	     6.245
  38.380         27.50	     5.745
  38.400         46.67	     7.483
  38.420         36.67	     6.633
  38.440         28.33	     5.831
  38.460         48.33	     7.616
  38.480         46.67	     7.483
  38.500         55.83	     8.185
  38.520         42.50	     7.141
  38.540         47.50	     7.550
  38.560         45.00	     7.348
  38.580         47.50	     7.550
  38.600         51.67	     7.874
  38.620         45.00	     7.348
  38.640         60.83	     8.544
  38.660         56.67	     8.246
  38.680         52.50	     7.937
  38.700         55.00	     8.124
  38.720         47.50	     7.550
  38.740         53.33	     8.000
  38.760         55.83	     8.185
  38.780         55.00	     8.124
  38.800         50.00	     7.746
  38.820         57.50	     8.307
  38.840         51.67	     7.874
  38.860         65.83	     8.888
  38.880         63.33	     8.718
  38.900         70.00	     9.165
  38.920         55.00	     8.124
  38.940         49.17	     7.681
  38.960         53.33	     8.000
  38.980         53.33	     8.000
  39.000         58.33	     8.367
  39.020         42.50	     7.141
  39.040         51.67	     7.874
  39.060         51.67	     7.874
  39.080         46.67	     7.483
  39.100         38.33	     6.782
  39.120         39.17	     6.856
  39.140         41.67	     7.071
  39.160         42.50	     7.141
  39.180         46.67	     7.483
  39.200         42.50	     7.141
  39.220         40.00	     6.928
  39.240         34.17	     6.403
  39.260         41.67	     7.071
  39.280         62.50	     8.660
  39.300         37.50	     6.708
  39.320         45.00	     7.348
  39.340         35.00	     6.481
  39.360         35.00	     6.481
  39.380         45.83	     7.416
  39.400         35.00	     6.481
  39.420         35.00	     6.481
  39.440         57.50	     8.307
  39.460         49.17	     7.681
  39.480         73.33	     9.381
  39.500         73.33	     9.381
  39.520         83.33	    10.000
  39.540         91.67	    10.488
  39.560         92.50	    10.536
  39.580         80.83	     9.849
  39.600         77.50	     9.644
  39.620         80.00	     9.798
  39.640         87.50	    10.247
  39.660         70.83	     9.220
  39.680         63.33	     8.718
  39.700         53.33	     8.000
  39.720         65.00	     8.832
  39.740         53.33	     8.000
  39.760         72.50	     9.327
  39.780         61.67	     8.602
  39.800         53.33	     8.000
  39.820         69.17	     9.110
  39.840         52.50	     7.937
  39.860         53.33	     8.000
  39.880         64.17	     8.775
  39.900         62.50	     8.660
  39.920         56.67	     8.246
  39.940         50.83	     7.810
  39.960         55.83	     8.185
  39.980         68.33	     9.055
  40.000         50.00	     7.746
  40.020         70.00	     9.165
  40.040         49.17	     7.681
  40.060         50.00	     7.746
  40.080         44.17	     7.280
  40.100         63.33	     8.718
  40.120         49.17	     7.681
  40.140         52.50	     7.937
  40.160         53.33	     8.000
  40.180         45.00	     7.348
  40.200         51.67	     7.874
  40.220         50.83	     7.810
  40.240         43.33	     7.211
  40.260         54.17	     8.062
  40.280         46.67	     7.483
  40.300         55.00	     8.124
  40.320         57.50	     8.307
  40.340         75.83	     9.539
  40.360         62.50	     8.660
  40.380         75.00	     9.487
  40.400         59.17	     8.426
  40.420         63.33	     8.718
  40.440         64.17	     8.775
  40.460         49.17	     7.681
  40.480         54.17	     8.062
  40.500         56.67	     8.246
  40.520         44.17	     7.280
  40.540         45.00	     7.348
  40.560         35.00	     6.481
  40.580         46.67	     7.483
  40.600         48.33	     7.616
  40.620         45.83	     7.416
  40.640         44.17	     7.280
  40.660         37.50	     6.708
  40.680         35.83	     6.557
  40.700         42.50	     7.141
  40.720         52.50	     7.937
  40.740         35.83	     6.557
  40.760         40.83	     7.000
  40.780         57.50	     8.307
  40.800         34.17	     6.403
  40.820         50.00	     7.746
  40.840         46.67	     7.483
  40.860         62.50	     8.660
  40.880         49.17	     7.681
  40.900         50.83	     7.810
  40.920         62.50	     8.660
  40.940         40.00	     6.928
  40.960         58.33	     8.367
  40.980         44.17	     7.280
  41.000         42.50	     7.141
  41.020         45.83	     7.416
  41.040         49.17	     7.681
  41.060         45.00	     7.348
  41.080         39.17	     6.856
  41.100         52.50	     7.937
  41.120         37.50	     6.708
  41.140         45.00	     7.348
  41.160         51.67	     7.874
  41.180         47.50	     7.550
  41.200         47.50	     7.550
  41.220         60.00	     8.485
  41.240         41.67	     7.071
  41.260         49.17	     7.681
  41.280         61.67	     8.602
  41.300         66.67	     8.944
  41.320         43.33	     7.211
  41.340         64.17	     8.775
  41.360         60.83	     8.544
  41.380         48.33	     7.616
  41.400         65.00	     8.832
  41.420         64.17	     8.775
  41.440         44.17	     7.280
  41.460         70.83	     9.220
  41.480         58.33	     8.367
  41.500         48.33	     7.616
  41.520         65.83	     8.888
  41.540         55.00	     8.124
  41.560         64.17	     8.775
  41.580         56.67	     8.246
  41.600         65.83	     8.888
  41.620         55.83	     8.185
  41.640         73.33	     9.381
  41.660         66.67	     8.944
  41.680         64.17	     8.775
  41.700         75.00	     9.487
  41.720         61.67	     8.602
  41.740         60.83	     8.544
  41.760         73.33	     9.381
  41.780         91.67	    10.488
  41.800         74.17	     9.434
  41.820         69.17	     9.110
  41.840         72.50	     9.327
  41.860         65.83	     8.888
  41.880         68.33	     9.055
  41.900         77.50	     9.644
  41.920         84.17	    10.050
  41.940         76.67	     9.592
  41.960         65.83	     8.888
  41.980         69.17	     9.110
  42.000         55.00	     8.124
  42.020         64.17	     8.775
  42.040         68.33	     9.055
  42.060         65.00	     8.832
  42.080         73.33	     9.381
  42.100         60.83	     8.544
  42.120         73.33	     9.381
  42.140         63.33	     8.718
  42.160         51.67	     7.874
  42.180         57.50	     8.307
  42.200         62.50	     8.660
  42.220         54.17	     8.062
  42.240         56.67	     8.246
  42.260         65.00	     8.832
  42.280         73.33	     9.381
  42.300         76.67	     9.592
  42.320         60.00	     8.485
  42.340         73.33	     9.381
  42.360         78.33	     9.695
  42.380         90.83	    10.440
  42.400         83.33	    10.000
  42.420        104.17	    11.180
  42.440         85.00	    10.100
  42.460         98.33	    10.863
  42.480        117.50	    11.874
  42.500        115.83	    11.790
  42.520        103.33	    11.136
  42.540        110.83	    11.533
  42.560        107.50	    11.358
  42.580         90.83	    10.440
  42.600        103.33	    11.136
  42.620         84.17	    10.050
  42.640         90.83	    10.440
  42.660         78.33	     9.695
  42.680         63.33	     8.718
  42.700         73.33	     9.381
  42.720         61.67	     8.602
  42.740         60.83	     8.544
  42.760         52.50	     7.937
  42.780         60.00	     8.485
  42.800         54.17	     8.062
  42.820         46.67	     7.483
  42.840         50.83	     7.810
  42.860         62.50	     8.660
  42.880         45.00	     7.348
  42.900         62.50	     8.660
  42.920         50.00	     7.746
  42.940         50.83	     7.810
  42.960         45.83	     7.416
  42.980         49.17	     7.681
  43.000         45.83	     7.416
  43.020         59.17	     8.426
  43.040         42.50	     7.141
  43.060         35.83	     6.557
  43.080         43.33	     7.211
  43.100         55.83	     8.185
  43.120         41.67	     7.071
  43.140         45.00	     7.348
  43.160         43.33	     7.211
  43.180         39.17	     6.856
  43.200         35.83	     6.557
  43.220         36.67	     6.633
  43.240         32.50	     6.245
  43.260         41.67	     7.071
  43.280         43.33	     7.211
  43.300         55.00	     8.124
  43.320         41.67	     7.071
  43.340         39.17	     6.856
  43.360         40.00	     6.928
  43.380         40.83	     7.000
  43.400         41.67	     7.071
  43.420         40.83	     7.000
  43.440         40.00	     6.928
  43.460         49.17	     7.681
  43.480         49.17	     7.681
  43.500         35.00	     6.481
  43.520         41.67	     7.071
  43.540         37.50	     6.708
  43.560         50.00	     7.746
  43.580         47.50	     7.550
  43.600         48.33	     7.616
  43.620         42.50	     7.141
  43.640         47.50	     7.550
  43.660         52.50	     7.937
  43.680         56.67	     8.246
  43.700         48.33	     7.616
  43.720         45.00	     7.348
  43.740         52.50	     7.937
  43.760         49.17	     7.681
  43.780         51.67	     7.874
  43.800         49.17	     7.681
  43.820         47.50	     7.550
  43.840         45.83	     7.416
  43.860         47.50	     7.550
  43.880         51.67	     7.874
  43.900         37.50	     6.708
  43.920         40.00	     6.928
  43.940         58.33	     8.367
  43.960         55.00	     8.124
  43.980         56.67	     8.246
  44.000         55.83	     8.185
  44.020         53.33	     8.000
  44.040         59.17	     8.426
  44.060         38.33	     6.782
  44.080         48.33	     7.616
  44.100         56.67	     8.246
  44.120         42.50	     7.141
  44.140         38.33	     6.782
  44.160         50.00	     7.746
  44.180         56.67	     8.246
  44.200         50.00	     7.746
  44.220         47.50	     7.550
  44.240         55.83	     8.185
  44.260         55.83	     8.185
  44.280         55.00	     8.124
  44.300         52.50	     7.937
  44.320         44.17	     7.280
  44.340         59.17	     8.426
  44.360         50.83	     7.810
  44.380         54.17	     8.062
  44.400         40.83	     7.000
  44.420         46.67	     7.483
  44.440         45.00	     7.348
  44.460         48.33	     7.616
  44.480         52.50	     7.937
  44.500         50.00	     7.746
  44.520         44.17	     7.280
  44.540         45.83	     7.416
  44.560         55.00	     8.124
  44.580         55.00	     8.124
  44.600         44.17	     7.280
  44.620         52.50	     7.937
  44.640         54.17	     8.062
  44.660         58.33	     8.367
  44.680         52.50	     7.937
  44.700         45.00	     7.348
  44.720         56.67	     8.246
  44.740         70.00	     9.165
  44.760         64.17	     8.775
  44.780         71.67	     9.274
  44.800         73.33	     9.381
  44.820         56.67	     8.246
  44.840         74.17	     9.434
  44.860         81.67	     9.899
  44.880         88.33	    10.296
  44.900         88.33	    10.296
  44.920         94.17	    10.630
  44.940         95.83	    10.724
  44.960        101.67	    11.045
  44.980        126.67	    12.329
  45.000        102.50	    11.091
  45.020        105.83	    11.269
  45.040        104.17	    11.180
  45.060        131.67	    12.570
  45.080        111.67	    11.576
  45.100        106.67	    11.314
  45.120        115.00	    11.747
  45.140        129.17	    12.450
  45.160        111.67	    11.576
  45.180        112.50	    11.619
  45.200        102.50	    11.091
  45.220        107.50	    11.358
  45.240        124.17	    12.207
  45.260        135.00	    12.728
  45.280        116.67	    11.832
  45.300        103.33	    11.136
  45.320        120.00	    12.000
  45.340        137.50	    12.845
  45.360        130.00	    12.490
  45.380        169.17	    14.248
  45.400        181.67	    14.765
  45.420        180.00	    14.697
  45.440        200.83	    15.524
  45.460        193.33	    15.232
  45.480        220.00	    16.248
  45.500        271.67	    18.055
  45.520        270.00	    18.000
  45.540        301.67	    19.026
  45.560        341.67	    20.248
  45.580        345.83	    20.372
  45.600        410.83	    22.204
  45.620        372.50	    21.142
  45.640        429.17	    22.694
  45.660        415.83	    22.338
  45.680        405.00	    22.045
  45.700        352.50	    20.567
  45.720        330.83	    19.925
  45.740        282.50	    18.412
  45.760        255.00	    17.493
  45.780        268.33	    17.944
  45.800        221.67	    16.310
  45.820        192.50	    15.199
  45.840        199.17	    15.460
  45.860        198.33	    15.427
  45.880        155.00	    13.638
  45.900        125.83	    12.288
  45.920        100.83	    11.000
  45.940         85.83	    10.149
  45.960         80.00	     9.798
  45.980         99.17	    10.909
  46.000         96.67	    10.770
  46.020         91.67	    10.488
  46.040         66.67	     8.944
  46.060         70.83	     9.220
  46.080         77.50	     9.644
  46.100         75.83	     9.539
  46.120         74.17	     9.434
  46.140         56.67	     8.246
  46.160         70.00	     9.165
  46.180         82.50	     9.950
  46.200         65.00	     8.832
  46.220         63.33	     8.718
  46.240         67.50	     9.000
  46.260         59.17	     8.426
  46.280         59.17	     8.426
  46.300         61.67	     8.602
  46.320         60.83	     8.544
  46.340         62.50	     8.660
  46.360         41.67	     7.071
  46.380         43.33	     7.211
  46.400         40.83	     7.000
  46.420         58.33	     8.367
  46.440         49.17	     7.681
  46.460         35.00	     6.481
  46.480         58.33	     8.367
  46.500         44.17	     7.280
  46.520         37.50	     6.708
  46.540         39.17	     6.856
  46.560         39.17	     6.856
  46.580         39.17	     6.856
  46.600         51.67	     7.874
  46.620         45.00	     7.348
  46.640         43.33	     7.211
  46.660         50.83	     7.810
  46.680         44.17	     7.280
  46.700         50.83	     7.810
  46.720         42.50	     7.141
  46.740         46.67	     7.483
  46.760         44.17	     7.280
  46.780         46.67	     7.483
  46.800         47.50	     7.550
  46.820         52.50	     7.937
  46.840         45.83	     7.416
  46.860         44.17	     7.280
  46.880         45.83	     7.416
  46.900         39.17	     6.856
  46.920         47.50	     7.550
  46.940         35.83	     6.557
  46.960         49.17	     7.681
  46.980         47.50	     7.550
  47.000         40.00	     6.928
  47.020         34.17	     6.403
  47.040         36.67	     6.633
  47.060         46.67	     7.483
  47.080         41.67	     7.071
  47.100         45.83	     7.416
  47.120         50.83	     7.810
  47.140         46.67	     7.483
  47.160         46.67	     7.483
  47.180         54.17	     8.062
  47.200         50.83	     7.810
  47.220         51.67	     7.874
  47.240         55.00	     8.124
  47.260         51.67	     7.874
  47.280         54.17	     8.062
  47.300         60.83	     8.544
  47.320         53.33	     8.000
  47.340         54.17	     8.062
  47.360         33.33	     6.325
  47.380         55.00	     8.124
  47.400         42.50	     7.141
  47.420         38.33	     6.782
  47.440         35.83	     6.557
  47.460         38.33	     6.782
  47.480         42.50	     7.141
  47.500         38.33	     6.782
  47.520         40.00	     6.928
  47.540         43.33	     7.211
  47.560         48.33	     7.616
  47.580         38.33	     6.782
  47.600         40.00	     6.928
  47.620         40.00	     6.928
  47.640         32.50	     6.245
  47.660         38.33	     6.782
  47.680         37.50	     6.708
  47.700         44.17	     7.280
  47.720         35.83	     6.557
  47.740         39.17	     6.856
  47.760         40.00	     6.928
  47.780         37.50	     6.708
  47.800         35.83	     6.557
  47.820         31.67	     6.164
  47.840         37.50	     6.708
  47.860         38.33	     6.782
  47.880         35.00	     6.481
  47.900         47.50	     7.550
  47.920         43.33	     7.211
  47.940         50.00	     7.746
  47.960         38.33	     6.782
  47.980         44.17	     7.280
  48.000         45.00	     7.348
  48.020         42.50	     7.141
  48.040         52.50	     7.937
  48.060         52.50	     7.937
  48.080         43.33	     7.211
  48.100         54.17	     8.062
  48.120         55.00	     8.124
  48.140         43.33	     7.211
  48.160         63.33	     8.718
  48.180         73.33	     9.381
  48.200         69.17	     9.110
  48.220         66.67	     8.944
  48.240         69.17	     9.110
  48.260         67.50	     9.000
  48.280         63.33	     8.718
  48.300         67.50	     9.000
  48.320         68.33	     9.055
  48.340         62.50	     8.660
  48.360         68.33	     9.055
  48.380         76.67	     9.592
  48.400         60.00	     8.485
  48.420         60.83	     8.544
  48.440         51.67	     7.874
  48.460         55.00	     8.124
  48.480         52.50	     7.937
  48.500         67.50	     9.000
  48.520         45.83	     7.416
  48.540         63.33	     8.718
  48.560         43.33	     7.211
  48.580         54.17	     8.062
  48.600         50.83	     7.810
  48.620         53.33	     8.000
  48.640         48.33	     7.616
  48.660         53.33	     8.000
  48.680         51.67	     7.874
  48.700         46.67	     7.483
  48.720         50.00	     7.746
  48.740         46.67	     7.483
  48.760         42.50	     7.141
  48.780         50.00	     7.746
  48.800         42.50	     7.141
  48.820         45.83	     7.416
  48.840         45.83	     7.416
  48.860         42.50	     7.141
  48.880         55.00	     8.124
  48.900         37.50	     6.708
  48.920         36.67	     6.633
  48.940         28.33	     5.831
  48.960         43.33	     7.211
  48.980         39.17	     6.856
  49.000         38.33	     6.782
  49.020         35.83	     6.557
  49.040         28.33	     5.831
  49.060         33.33	     6.325
  49.080         40.00	     6.928
  49.100         42.50	     7.141
  49.120         41.67	     7.071
  49.140         51.67	     7.874
  49.160         45.83	     7.416
  49.180         30.83	     6.083
  49.200         44.17	     7.280
  49.220         42.50	     7.141
  49.240         53.33	     8.000
  49.260         58.33	     8.367
  49.280         61.67	     8.602
  49.300         56.67	     8.246
  49.320         45.83	     7.416
  49.340         44.17	     7.280
  49.360         51.67	     7.874
  49.380         53.33	     8.000
  49.400         52.50	     7.937
  49.420         51.67	     7.874
  49.440         34.17	     6.403
  49.460         44.17	     7.280
  49.480         42.50	     7.141
  49.500         40.83	     7.000
  49.520         44.17	     7.280
  49.540         45.83	     7.416
  49.560         40.83	     7.000
  49.580         46.67	     7.483
  49.600         44.17	     7.280
  49.620         49.17	     7.681
  49.640         42.50	     7.141
  49.660         52.50	     7.937
  49.680         50.83	     7.810
  49.700         55.00	     8.124
  49.720         43.33	     7.211
  49.740         39.17	     6.856
  49.760         60.83	     8.544
  49.780         48.33	     7.616
  49.800         52.50	     7.937
  49.820         50.83	     7.810
  49.840         58.33	     8.367
  49.860         67.50	     9.000
  49.880         69.17	     9.110
  49.900         80.00	     9.798
  49.920         60.00	     8.485
  49.940         63.33	     8.718
  49.960         60.00	     8.485
  49.980         65.00	     8.832
  50.000         65.00	     8.832
  50.020         67.50	     9.000
  50.040         63.33	     8.718
  50.060         80.00	     9.798
  50.080         63.33	     8.718
  50.100         84.17	    10.050
  50.120         88.33	    10.296
  50.140        106.67	    11.314
  50.160        126.67	    12.329
  50.180        150.83	    13.454
  50.200        180.00	    14.697
  50.220        144.17	    13.153
  50.240        127.50	    12.369
  50.260         94.17	    10.630
  50.280         94.17	    10.630
  50.300         95.83	    10.724
  50.320         95.00	    10.677
  50.340         89.17	    10.344
  50.360         90.83	    10.440
  50.380         75.00	     9.487
  50.400         59.17	     8.426
  50.420         76.67	     9.592
  50.440         39.17	     6.856
  50.460         50.00	     7.746
  50.480         50.83	     7.810
  50.500         48.33	     7.616
  50.520         60.83	     8.544
  50.540         45.83	     7.416
  50.560         54.17	     8.062
  50.580         57.50	     8.307
  50.600         45.83	     7.416
  50.620         80.83	     9.849
  50.640         70.00	     9.165
  50.660         60.00	     8.485
  50.680         65.83	     8.888
  50.700         53.33	     8.000
  50.720         56.67	     8.246
  50.740         73.33	     9.381
  50.760         65.83	     8.888
  50.780         65.00	     8.832
  50.800         66.67	     8.944
  50.820         64.17	     8.775
  50.840         56.67	     8.246
  50.860         53.33	     8.000
  50.880         41.67	     7.071
  50.900         45.83	     7.416
  50.920         40.83	     7.000
  50.940         44.17	     7.280
  50.960         44.17	     7.280
  50.980         39.17	     6.856
  51.000         32.50	     6.245
  51.020         46.67	     7.483
  51.040         29.17	     5.916
  51.060         31.67	     6.164
  51.080         31.67	     6.164
  51.100         30.83	     6.083
  51.120         40.00	     6.928
  51.140         50.83	     7.810
  51.160         52.50	     7.937
  51.180         74.17	     9.434
  51.200         67.50	     9.000
  51.220         67.50	     9.000
  51.240         67.50	     9.000
  51.260         51.67	     7.874
  51.280         49.17	     7.681
  51.300         64.17	     8.775
  51.320         70.00	     9.165
  51.340         65.00	     8.832
  51.360         60.00	     8.485
  51.380         58.33	     8.367
  51.400         61.67	     8.602
  51.420         62.50	     8.660
  51.440         56.67	     8.246
  51.460         45.83	     7.416
  51.480         55.00	     8.124
  51.500         40.00	     6.928
  51.520         40.00	     6.928
  51.540         42.50	     7.141
  51.560         39.17	     6.856
  51.580         40.83	     7.000
  51.600         35.00	     6.481
  51.620         40.83	     7.000
  51.640         31.67	     6.164
  51.660         34.17	     6.403
  51.680         35.83	     6.557
  51.700         27.50	     5.745
  51.720         28.33	     5.831
  51.740         34.17	     6.403
  51.760         26.67	     5.657
  51.780         31.67	     6.164
  51.800         37.50	     6.708
  51.820         30.83	     6.083
  51.840         25.00	     5.477
  51.860         29.17	     5.916
  51.880         30.83	     6.083
  51.900         35.00	     6.481
  51.920         43.33	     7.211
  51.940         35.00	     6.481
  51.960         25.83	     5.568
  51.980         32.50	     6.245
  52.000         26.67	     5.657
  52.020         28.33	     5.831
  52.040         23.33	     5.292
  52.060         35.00	     6.481
  52.080         35.83	     6.557
  52.100         34.17	     6.403
  52.120         29.17	     5.916
  52.140         38.33	     6.782
  52.160         40.83	     7.000
  52.180         33.33	     6.325
  52.200         53.33	     8.000
  52.220         47.50	     7.550
  52.240         42.50	     7.141
  52.260         30.83	     6.083
  52.280         40.00	     6.928
  52.300         33.33	     6.325
  52.320         51.67	     7.874
  52.340         50.00	     7.746
  52.360         45.00	     7.348
  52.380         51.67	     7.874
  52.400         62.50	     8.660
  52.420         38.33	     6.782
  52.440         50.00	     7.746
  52.460         48.33	     7.616
  52.480         46.67	     7.483
  52.500         52.50	     7.937
  52.520         50.00	     7.746
  52.540         48.33	     7.616
  52.560         45.00	     7.348
  52.580         52.50	     7.937
  52.600         59.17	     8.426
  52.620         50.83	     7.810
  52.640         65.83	     8.888
  52.660         60.00	     8.485
  52.680         49.17	     7.681
  52.700         42.50	     7.141
  52.720         48.33	     7.616
  52.740         52.50	     7.937
  52.760         50.83	     7.810
  52.780         55.00	     8.124
  52.800         50.00	     7.746
  52.820         45.00	     7.348
  52.840         60.00	     8.485
  52.860         54.17	     8.062
  52.880         48.33	     7.616
  52.900         56.67	     8.246
  52.920         53.33	     8.000
  52.940         64.17	     8.775
  52.960         50.00	     7.746
  52.980         52.50	     7.937
  53.000         51.67	     7.874
  53.020         41.67	     7.071
  53.040         54.17	     8.062
  53.060         61.67	     8.602
  53.080         50.00	     7.746
  53.100         73.33	     9.381
  53.120         54.17	     8.062
  53.140         47.50	     7.550
  53.160         58.33	     8.367
  53.180         70.00	     9.165
  53.200         75.00	     9.487
  53.220         49.17	     7.681
  53.240         59.17	     8.426
  53.260         60.00	     8.485
  53.280         59.17	     8.426
  53.300         52.50	     7.937
  53.320         58.33	     8.367
  53.340         52.50	     7.937
  53.360         60.00	     8.485
  53.380         56.67	     8.246
  53.400         59.17	     8.426
  53.420         40.83	     7.000
  53.440         55.00	     8.124
  53.460         40.00	     6.928
  53.480         52.50	     7.937
  53.500         53.33	     8.000
  53.520         58.33	     8.367
  53.540         48.33	     7.616
  53.560         43.33	     7.211
  53.580         39.17	     6.856
  53.600         42.50	     7.141
  53.620         40.83	     7.000
  53.640         52.50	     7.937
  53.660         54.17	     8.062
  53.680         51.67	     7.874
  53.700         37.50	     6.708
  53.720         44.17	     7.280
  53.740         36.67	     6.633
  53.760         42.50	     7.141
  53.780         44.17	     7.280
  53.800         34.17	     6.403
  53.820         54.17	     8.062
  53.840         46.67	     7.483
  53.860         45.83	     7.416
  53.880         38.33	     6.782
  53.900         35.00	     6.481
  53.920         43.33	     7.211
  53.940         45.83	     7.416
  53.960         56.67	     8.246
  53.980         45.83	     7.416
  54.000         45.83	     7.416
  54.020         39.17	     6.856
  54.040         56.67	     8.246
  54.060         45.83	     7.416
  54.080         39.17	     6.856
  54.100         46.67	     7.483
  54.120         47.50	     7.550
  54.140         36.67	     6.633
  54.160         45.00	     7.348
  54.180         55.00	     8.124
  54.200         45.00	     7.348
  54.220         57.50	     8.307
  54.240         50.83	     7.810
  54.260         40.83	     7.000
  54.280         49.17	     7.681
  54.300         51.67	     7.874
  54.320         50.83	     7.810
  54.340         52.50	     7.937
  54.360         51.67	     7.874
  54.380         44.17	     7.280
  54.400         55.00	     8.124
  54.420         55.83	     8.185
  54.440         57.50	     8.307
  54.460         50.83	     7.810
  54.480         70.00	     9.165
  54.500         52.50	     7.937
  54.520         59.17	     8.426
  54.540         55.00	     8.124
  54.560         69.17	     9.110
  54.580         63.33	     8.718
  54.600         61.67	     8.602
  54.620         82.50	     9.950
  54.640         62.50	     8.660
  54.660         80.00	     9.798
  54.680         71.67	     9.274
  54.700         59.17	     8.426
  54.720         68.33	     9.055
  54.740         82.50	     9.950
  54.760         69.17	     9.110
  54.780         70.00	     9.165
  54.800         76.67	     9.592
  54.820         65.00	     8.832
  54.840         70.83	     9.220
  54.860         79.17	     9.747
  54.880         85.83	    10.149
  54.900         78.33	     9.695
  54.920         82.50	     9.950
  54.940         97.50	    10.817
  54.960         90.83	    10.440
  54.980         71.67	     9.274
  55.000         75.83	     9.539
  55.020         71.67	     9.274
  55.040         75.00	     9.487
  55.060         74.17	     9.434
  55.080         74.17	     9.434
  55.100         70.83	     9.220
  55.120         73.33	     9.381
  55.140         68.33	     9.055
  55.160         74.17	     9.434
  55.180         67.50	     9.000
  55.200         60.83	     8.544
  55.220         81.67	     9.899
  55.240         72.50	     9.327
  55.260         71.67	     9.274
  55.280         79.17	     9.747
  55.300         84.17	    10.050
  55.320         81.67	     9.899
  55.340         82.50	     9.950
  55.360         80.00	     9.798
  55.380         81.67	     9.899
  55.400         83.33	    10.000
  55.420         94.17	    10.630
  55.440         60.83	     8.544
  55.460         77.50	     9.644
  55.480         80.00	     9.798
  55.500         85.00	    10.100
  55.520         73.33	     9.381
  55.540         75.83	     9.539
  55.560         73.33	     9.381
  55.580         84.17	    10.050
  55.600         80.00	     9.798
  55.620         68.33	     9.055
  55.640         80.00	     9.798
  55.660         87.50	    10.247
  55.680         73.33	     9.381
  55.700         60.00	     8.485
  55.720         82.50	     9.950
  55.740         90.83	    10.440
  55.760        105.00	    11.225
  55.780         91.67	    10.488
  55.800        123.33	    12.166
  55.820        106.67	    11.314
  55.840        115.00	    11.747
  55.860         99.17	    10.909
  55.880        108.33	    11.402
  55.900        116.67	    11.832
  55.920        110.00	    11.489
  55.940        125.83	    12.288
  55.960        100.83	    11.000
  55.980        109.17	    11.446
  56.000         81.67	     9.899
  56.020         96.67	    10.770
  56.040         82.50	     9.950
  56.060         85.83	    10.149
  56.080         62.50	     8.660
  56.100         73.33	     9.381
  56.120         70.83	     9.220
  56.140         75.00	     9.487
  56.160         77.50	     9.644
  56.180         56.67	     8.246
  56.200         65.00	     8.832
  56.220         58.33	     8.367
  56.240         55.00	     8.124
  56.260         41.67	     7.071
  56.280         54.17	     8.062
  56.300         53.33	     8.000
  56.320         53.33	     8.000
  56.340         51.67	     7.874
  56.360         50.83	     7.810
  56.380         50.83	     7.810
  56.400         49.17	     7.681
  56.420         42.50	     7.141
  56.440         50.00	     7.746
  56.460         46.67	     7.483
  56.480         51.67	     7.874
  56.500         47.50	     7.550
  56.520         45.00	     7.348
  56.540         37.50	     6.708
  56.560         47.50	     7.550
  56.580         35.00	     6.481
  56.600         31.67	     6.164
  56.620         42.50	     7.141
  56.640         33.33	     6.325
  56.660         40.00	     6.928
  56.680         62.50	     8.660
  56.700         41.67	     7.071
  56.720         35.83	     6.557
  56.740         40.83	     7.000
  56.760         39.17	     6.856
  56.780         30.00	     6.000
  56.800         38.33	     6.782
  56.820         35.00	     6.481
  56.840         47.50	     7.550
  56.860         35.00	     6.481
  56.880         34.17	     6.403
  56.900         51.67	     7.874
  56.920         53.33	     8.000
  56.940         45.83	     7.416
  56.960         32.50	     6.245
  56.980         39.17	     6.856
  57.000         42.50	     7.141
  57.020         41.67	     7.071
  57.040         45.83	     7.416
  57.060         40.00	     6.928
  57.080         41.67	     7.071
  57.100         40.00	     6.928
  57.120         27.50	     5.745
  57.140         43.33	     7.211
  57.160         44.17	     7.280
  57.180         34.17	     6.403
  57.200         44.17	     7.280
  57.220         28.33	     5.831
  57.240         49.17	     7.681
  57.260         44.17	     7.280
  57.280         44.17	     7.280
  57.300         45.83	     7.416
  57.320         49.17	     7.681
  57.340         35.00	     6.481
  57.360         39.17	     6.856
  57.380         44.17	     7.280
  57.400         39.17	     6.856
  57.420         40.00	     6.928
  57.440         45.00	     7.348
  57.460         45.00	     7.348
  57.480         46.67	     7.483
  57.500         38.33	     6.782
  57.520         45.00	     7.348
  57.540         38.33	     6.782
  57.560         43.33	     7.211
  57.580         45.83	     7.416
  57.600         57.50	     8.307
  57.620         43.33	     7.211
  57.640         32.50	     6.245
  57.660         55.00	     8.124
  57.680         48.33	     7.616
  57.700         44.17	     7.280
  57.720         39.17	     6.856
  57.740         35.00	     6.481
  57.760         33.33	     6.325
  57.780         43.33	     7.211
  57.800         41.67	     7.071
  57.820         37.50	     6.708
  57.840         42.50	     7.141
  57.860         40.00	     6.928
  57.880         44.17	     7.280
  57.900         45.00	     7.348
  57.920         37.50	     6.708
  57.940         38.33	     6.782
  57.960         38.33	     6.782
  57.980         29.17	     5.916
  58.000         44.17	     7.280
  58.020         41.67	     7.071
  58.040         40.00	     6.928
  58.060         42.50	     7.141
  58.080         42.50	     7.141
  58.100         41.67	     7.071
  58.120         51.67	     7.874
  58.140         44.17	     7.280
  58.160         46.67	     7.483
  58.180         50.83	     7.810
  58.200         55.00	     8.124
  58.220         33.33	     6.325
  58.240         49.17	     7.681
  58.260         47.50	     7.550
  58.280         47.50	     7.550
  58.300         39.17	     6.856
  58.320         39.17	     6.856
  58.340         41.67	     7.071
  58.360         50.00	     7.746
  58.380         41.67	     7.071
  58.400         53.33	     8.000
  58.420         40.83	     7.000
  58.440         35.83	     6.557
  58.460         49.17	     7.681
  58.480         47.50	     7.550
  58.500         45.00	     7.348
  58.520         48.33	     7.616
  58.540         49.17	     7.681
  58.560         49.17	     7.681
  58.580         50.83	     7.810
  58.600         60.00	     8.485
  58.620         58.33	     8.367
  58.640         50.83	     7.810
  58.660         59.17	     8.426
  58.680         58.33	     8.367
  58.700         60.83	     8.544
  58.720         60.83	     8.544
  58.740         55.83	     8.185
  58.760         66.67	     8.944
  58.780         58.33	     8.367
  58.800         75.83	     9.539
  58.820         75.83	     9.539
  58.840         65.83	     8.888
  58.860         79.17	     9.747
  58.880         74.17	     9.434
  58.900         64.17	     8.775
  58.920         68.33	     9.055
  58.940         70.83	     9.220
  58.960         69.17	     9.110
  58.980         85.00	    10.100
  59.000         83.33	    10.000
  59.020         75.83	     9.539
  59.040         75.83	     9.539
  59.060         81.67	     9.899
  59.080         75.00	     9.487
  59.100         73.33	     9.381
  59.120         70.83	     9.220
  59.140         69.17	     9.110
  59.160         59.17	     8.426
  59.180         62.50	     8.660
  59.200         70.83	     9.220
  59.220         71.67	     9.274
  59.240         70.00	     9.165
  59.260         70.83	     9.220
  59.280         71.67	     9.274
  59.300         48.33	     7.616
  59.320         75.00	     9.487
  59.340         54.17	     8.062
  59.360         55.00	     8.124
  59.380         56.67	     8.246
  59.400         50.00	     7.746
  59.420         66.67	     8.944
  59.440         53.33	     8.000
  59.460         52.50	     7.937
  59.480         60.00	     8.485
  59.500         57.50	     8.307
  59.520         54.17	     8.062
  59.540         54.17	     8.062
  59.560         65.83	     8.888
  59.580         51.67	     7.874
  59.600         57.50	     8.307
  59.620         51.67	     7.874
  59.640         65.00	     8.832
  59.660         57.50	     8.307
  59.680         55.00	     8.124
  59.700         53.33	     8.000
  59.720         54.17	     8.062
  59.740         61.67	     8.602
  59.760         63.33	     8.718
  59.780         56.67	     8.246
  59.800         70.83	     9.220
  59.820         69.17	     9.110
  59.840         75.83	     9.539
  59.860         65.00	     8.832
  59.880         70.00	     9.165
  59.900         76.67	     9.592
  59.920         83.33	    10.000
  59.940         84.17	    10.050
  59.960        110.00	    11.489
  59.980        107.50	    11.358
  60.000        141.67	    13.038
  60.020        145.83	    13.229
  60.040        147.50	    13.304
  60.060        132.50	    12.610
  60.080         94.17	    10.630
  60.100         93.33	    10.583
  60.120         92.50	    10.536
  60.140         97.50	    10.817
  60.160         90.00	    10.392
  60.180         97.50	    10.817
  60.200        115.00	    11.747
  60.220         80.00	     9.798
  60.240         90.83	    10.440
  60.260         58.33	     8.367
  60.280         58.33	     8.367
  60.300         59.17	     8.426
  60.320         69.17	     9.110
  60.340         65.00	     8.832
  60.360         54.17	     8.062
  60.380         57.50	     8.307
  60.400         65.00	     8.832
  60.420         71.67	     9.274
  60.440         52.50	     7.937
  60.460         48.33	     7.616
  60.480         51.67	     7.874
  60.500         57.50	     8.307
  60.520         72.50	     9.327
  60.540         61.67	     8.602
  60.560         53.33	     8.000
  60.580         49.17	     7.681
  60.600         51.67	     7.874
  60.620         62.50	     8.660
  60.640         60.00	     8.485
  60.660         47.50	     7.550
  60.680         61.67	     8.602
  60.700         56.67	     8.246
  60.720         58.33	     8.367
  60.740         61.67	     8.602
  60.760         87.50	    10.247
  60.780         91.67	    10.488
  60.800         58.33	     8.367
  60.820         70.00	     9.165
  60.840         68.33	     9.055
  60.860         96.67	    10.770
  60.880         92.50	    10.536
  60.900         91.67	    10.488
  60.920         85.83	    10.149
  60.940         81.67	     9.899
  60.960         85.00	    10.100
  60.980         74.17	     9.434
  61.000         82.50	     9.950
  61.020         67.50	     9.000
  61.040         75.83	     9.539
  61.060         67.50	     9.000
  61.080         80.00	     9.798
  61.100         75.00	     9.487
  61.120         84.17	    10.050
  61.140         71.67	     9.274
  61.160         61.67	     8.602
  61.180         62.50	     8.660
  61.200         60.00	     8.485
  61.220         64.17	     8.775
  61.240         77.50	     9.644
  61.260         71.67	     9.274
  61.280         66.67	     8.944
  61.300         50.00	     7.746
  61.320         58.33	     8.367
  61.340         75.83	     9.539
  61.360         69.17	     9.110
  61.380         67.50	     9.000
  61.400         65.83	     8.888
  61.420         64.17	     8.775
  61.440         65.00	     8.832
  61.460         80.00	     9.798
  61.480         74.17	     9.434
  61.500         71.67	     9.274
  61.520         76.67	     9.592
  61.540         77.50	     9.644
  61.560         65.00	     8.832
  61.580         73.33	     9.381
  61.600         75.83	     9.539
  61.620         76.67	     9.592
  61.640         75.83	     9.539
  61.660         79.17	     9.747
  61.680         83.33	    10.000
  61.700         80.00	     9.798
  61.720         85.00	    10.100
  61.740         82.50	     9.950
  61.760         73.33	     9.381
  61.780         69.17	     9.110
  61.800         70.83	     9.220
  61.820         69.17	     9.110
  61.840         55.00	     8.124
  61.860         65.00	     8.832
  61.880         49.17	     7.681
  61.900         44.17	     7.280
  61.920         65.83	     8.888
  61.940         58.33	     8.367
  61.960         49.17	     7.681
  61.980         64.17	     8.775
  62.000         51.67	     7.874
  62.020         63.33	     8.718
  62.040         53.33	     8.000
  62.060         49.17	     7.681
  62.080         61.67	     8.602
  62.100         52.50	     7.937
  62.120         49.17	     7.681
  62.140         49.17	     7.681
  62.160         45.00	     7.348
  62.180         59.17	     8.426
  62.200         57.50	     8.307
  62.220         45.83	     7.416
  62.240         66.67	     8.944
  62.260         50.00	     7.746
  62.280         40.83	     7.000
  62.300         44.17	     7.280
  62.320         39.17	     6.856
  62.340         42.50	     7.141
  62.360         42.50	     7.141
  62.380         41.67	     7.071
  62.400         42.50	     7.141
  62.420         55.83	     8.185
  62.440         50.83	     7.810
  62.460         33.33	     6.325
  62.480         46.67	     7.483
  62.500         33.33	     6.325
  62.520         42.50	     7.141
  62.540         48.33	     7.616
  62.560         40.83	     7.000
  62.580         36.67	     6.633
  62.600         40.00	     6.928
  62.620         35.00	     6.481
  62.640         41.67	     7.071
  62.660         42.50	     7.141
  62.680         51.67	     7.874
  62.700         37.50	     6.708
  62.720         47.50	     7.550
  62.740         51.67	     7.874
  62.760         42.50	     7.141
  62.780         49.17	     7.681
  62.800         31.67	     6.164
  62.820         45.83	     7.416
  62.840         55.00	     8.124
  62.860         50.83	     7.810
  62.880         36.67	     6.633
  62.900         51.67	     7.874
  62.920         43.33	     7.211
  62.940         48.33	     7.616
  62.960         46.67	     7.483
  62.980         52.50	     7.937
  63.000         47.50	     7.550
  63.020         35.83	     6.557
  63.040         48.33	     7.616
  63.060         40.00	     6.928
  63.080         38.33	     6.782
  63.100         49.17	     7.681
  63.120         49.17	     7.681
  63.140         41.67	     7.071
  63.160         35.83	     6.557
  63.180         50.00	     7.746
  63.200         50.83	     7.810
  63.220         42.50	     7.141
  63.240         50.83	     7.810
  63.260         43.33	     7.211
  63.280         41.67	     7.071
  63.300         31.67	     6.164
  63.320         35.83	     6.557
  63.340         33.33	     6.325
  63.360         45.00	     7.348
  63.380         35.00	     6.481
  63.400         35.83	     6.557
  63.420         45.83	     7.416
  63.440         43.33	     7.211
  63.460         37.50	     6.708
  63.480         40.83	     7.000
  63.500         50.83	     7.810
  63.520         57.50	     8.307
  63.540         49.17	     7.681
  63.560         43.33	     7.211
  63.580         26.67	     5.657
  63.600         31.67	     6.164
  63.620         45.00	     7.348
  63.640         40.00	     6.928
  63.660         45.83	     7.416
  63.680         47.50	     7.550
  63.700         37.50	     6.708
  63.720         41.67	     7.071
  63.740         45.83	     7.416
  63.760         55.00	     8.124
  63.780         61.67	     8.602
  63.800         51.67	     7.874
  63.820         72.50	     9.327
  63.840         44.17	     7.280
  63.860         61.67	     8.602
  63.880         61.67	     8.602
  63.900         51.67	     7.874
  63.920         53.33	     8.000
  63.940         56.67	     8.246
  63.960         48.33	     7.616
  63.980         64.17	     8.775
  64.000         52.50	     7.937
  64.020         62.50	     8.660
  64.040         73.33	     9.381
  64.060         77.50	     9.644
  64.080         84.17	    10.050
  64.100         87.50	    10.247
  64.120         61.67	     8.602
  64.140         76.67	     9.592
  64.160         56.67	     8.246
  64.180         69.17	     9.110
  64.200         72.50	     9.327
  64.220         70.83	     9.220
  64.240         56.67	     8.246
  64.260         73.33	     9.381
  64.280         54.17	     8.062
  64.300         75.00	     9.487
  64.320         57.50	     8.307
  64.340         61.67	     8.602
  64.360         56.67	     8.246
  64.380         59.17	     8.426
  64.400         60.83	     8.544
  64.420         50.83	     7.810
  64.440         46.67	     7.483
  64.460         55.00	     8.124
  64.480         48.33	     7.616
  64.500         50.83	     7.810
  64.520         51.67	     7.874
  64.540         55.00	     8.124
  64.560         46.67	     7.483
  64.580         46.67	     7.483
  64.600         52.50	     7.937
  64.620         52.50	     7.937
  64.640         51.67	     7.874
  64.660         52.50	     7.937
  64.680         58.33	     8.367
  64.700         56.67	     8.246
  64.720         60.83	     8.544
  64.740         65.00	     8.832
  64.760         55.83	     8.185
  64.780         55.83	     8.185
  64.800         51.67	     7.874
  64.820         61.67	     8.602
  64.840         60.83	     8.544
  64.860         66.67	     8.944
  64.880         71.67	     9.274
  64.900         62.50	     8.660
  64.920         50.00	     7.746
  64.940         70.00	     9.165
  64.960         55.00	     8.124
  64.980         55.00	     8.124
  65.000         66.67	     8.944
